-3.845
-3.845
-5.125
-1.285
-1.285
-2.565
-1.285
-3.845
-5.125
-8.965
-7.6850000000000005
-12.805
-8.965
-12.805
-12.805
-10.245000000000001
1.28
7.68
15.36
14.08
30.72
21.76
14.08
-1.285
-0.005
-21.765
-23.045
-26.885
-23.045
-28.165
-23.045
-29.445
-21.765
-19.205000000000002
51.2
136.96
-80.645
-89.605
-48.645
-21.765
-20.485
-25.605
-21.765
-23.045
-17.925
-23.045
-16.645
-20.485
-14.085
-15.365
-6.405
-5.125
0.0
2.56
8.96
14.08
28.16
33.28
44.800000000000004
53.76
61.44
65.28
72.96000000000001
75.52
74.24
58.88
51.2
29.44
14.08
2.56
-2.565
-6.405
-10.245000000000001
-8.965
-7.6850000000000005
-3.845
-7.6850000000000005
-3.845
-5.125
-3.845
-6.405
-3.845
-6.405
-6.405
-10.245000000000001
-7.6850000000000005
-10.245000000000001
-10.245000000000001
-15.365
-12.805
-8.965
8.96
12.8
17.92
15.36
26.88
21.76
7.68
0.0
-7.6850000000000005
-24.325
-26.885
-29.445
-21.765
-26.885
-25.605
-30.725
-20.485
-14.085
49.92
104.96000000000001
-115.205
-97.285
-49.925000000000004
-20.485
-20.485
-25.605
-23.045
-32.005
-23.045
-25.605
-17.925
-21.765
-12.805
-16.645
-10.245000000000001
-7.6850000000000005
0.0
0.0
12.8
15.36
30.72
32.0
47.36
51.2
64.0
69.12
76.8
80.64
71.68
62.72
44.800000000000004
24.32
11.52
0.0
-8.965
-7.6850000000000005
-10.245000000000001
-10.245000000000001
-12.805
-11.525
-8.965
-10.245000000000001
-3.845
-11.525
-6.405
-11.525
-8.965
-12.805
-14.085
-12.805
-10.245000000000001
-14.085
-15.365
-12.805
0.0
7.68
14.08
8.96
28.16
21.76
15.36
0.0
-6.405
-28.165
-30.725
-30.725
-25.605
-29.445
-25.605
-33.285000000000004
-29.445
-19.205000000000002
34.56
119.04
-58.885
-97.285
-66.565
-37.125
-30.725
-32.005
-24.325
-29.445
-24.325
-29.445
-19.205000000000002
-21.765
-15.365
-16.645
-8.965
-8.965
-0.005
1.28
6.4
14.08
20.48
28.16
46.08
48.64
62.72
66.56
72.96000000000001
76.8
74.24
65.28
56.32
29.44
14.08
2.56
-2.565
-12.805
-7.6850000000000005
-8.965
-14.085
-10.245000000000001
-6.405
-7.6850000000000005
-7.6850000000000005
-6.405
-7.6850000000000005
-8.965
-12.805
-12.805
-10.245000000000001
-11.525
-14.085
-11.525
-11.525
-11.525
-5.125
11.52
11.52
12.8
30.72
24.32
11.52
-1.285
-1.285
-24.325
-29.445
-26.885
-25.605
-26.885
-26.885
-30.725
-28.165
-16.645
40.96
131.84
-33.285000000000004
-93.44500000000001
-57.605000000000004
-29.445
-21.765
-24.325
-25.605
-25.605
-21.765
-25.605
-17.925
-21.765
-15.365
-16.645
-10.245000000000001
-8.965
0.0
0.0
10.24
14.08
23.04
28.16
40.96
49.92
57.6
66.56
71.68
71.68
76.8
67.84
52.480000000000004
33.28
17.92
2.56
-3.845
-10.245000000000001
-7.6850000000000005
-6.405
-6.405
-7.6850000000000005
-10.245000000000001
-8.965
-5.125
-3.845
-6.405
-6.405
-10.245000000000001
-10.245000000000001
-8.965
-11.525
-14.085
-12.805
-16.645
-16.645
-5.125
10.24
11.52
17.92
26.88
26.88
20.48
0.0
0.0
-14.085
-26.885
-24.325
-24.325
-26.885
-28.165
-26.885
-30.725
-20.485
14.08
83.2
0.0
-104.965
-70.405
-34.565
-20.485
-26.885
-25.605
-25.605
-24.325
-25.605
-24.325
-19.205000000000002
-17.925
-14.085
-11.525
-6.405
-1.285
0.0
6.4
15.36
23.04
30.72
40.96
52.480000000000004
60.160000000000004
64.0
75.52
76.8
76.8
71.68
53.76
35.84
17.92
3.84
-2.565
-5.125
-11.525
-12.805
-11.525
-7.6850000000000005
-8.965
-10.245000000000001
-7.6850000000000005
-7.6850000000000005
-5.125
-7.6850000000000005
-10.245000000000001
-5.125
-7.6850000000000005
-11.525
-12.805
-11.525
-14.085
-12.805
-0.005
11.52
12.8
14.08
26.88
21.76
15.36
1.28
-3.845
-24.325
-28.165
-28.165
-28.165
-29.445
-29.445
-29.445
-30.725
-16.645
19.2
85.76
-2.565
-102.405
-69.125
-42.245
-24.325
-25.605
-25.605
-21.765
-26.885
-26.885
-19.205000000000002
-19.205000000000002
-17.925
-17.925
-10.245000000000001
-5.125
-1.285
0.0
6.4
16.64
20.48
26.88
42.24
51.2
60.160000000000004
67.84
70.4
79.36
80.64
69.12
56.32
32.0
20.48
1.28
-5.125
-5.125
-11.525
-8.965
-11.525
-11.525
-10.245000000000001
-8.965
-3.845
-7.6850000000000005
-11.525
-8.965
-8.965
-10.245000000000001
-12.805
-12.805
-14.085
-16.645
-15.365
-15.365
0.0
10.24
10.24
12.8
29.44
19.2
14.08
-3.845
-2.565
-24.325
-28.165
-30.725
-25.605
-29.445
-28.165
-32.005
-25.605
-16.645
42.24
129.28
-40.965
-96.005
-61.445
-37.125
-26.885
-25.605
-25.605
-28.165
-17.925
-24.325
-21.765
-23.045
-12.805
-8.965
-11.525
-11.525
-1.285
3.84
14.08
11.52
26.88
34.56
42.24
51.2
65.28
75.52
75.52
79.36
79.36
66.56
56.32
34.56
14.08
8.96
-1.285
-0.005
-7.6850000000000005
-7.6850000000000005
-14.085
-5.125
-5.125
-10.245000000000001
-5.125
-8.965
-5.125
-8.965
-11.525
-8.965
-16.645
-15.365
-16.645
-15.365
-16.645
-15.365
-7.6850000000000005
10.24
8.96
19.2
15.36
29.44
23.04
3.84
-1.285
-14.085
-30.725
-24.325
-29.445
-28.165
-30.725
-23.045
-32.005
-15.365
2.56
89.60000000000001
120.32000000000001
-98.565
-72.965
-35.845
-15.365
-21.765
-29.445
-21.765
-30.725
-21.765
-26.885
-16.645
-20.485
-11.525
-15.365
-5.125
-11.525
-0.005
5.12
14.08
16.64
26.88
38.4
48.64
57.6
65.28
70.4
79.36
81.92
76.8
65.28
44.800000000000004
26.88
11.52
0.0
-5.125
-5.125
-3.845
-5.125
-6.405
-6.405
-3.845
-6.405
-7.6850000000000005
-6.405
-2.565
-6.405
-2.565
-8.965
-7.6850000000000005
-10.245000000000001
-10.245000000000001
-12.805
-10.245000000000001
-6.405
11.52
12.8
20.48
19.2
29.44
23.04
5.12
0.0
-8.965
-23.045
-20.485
-28.165
-21.765
-28.165
-24.325
-28.165
-12.805
0.0
66.56
89.60000000000001
-112.645
-88.325
-37.125
-14.085
-19.205000000000002
-23.045
-21.765
-26.885
-17.925
-23.045
-14.085
-16.645
-14.085
-10.245000000000001
-5.125
-1.285
2.56
5.12
16.64
21.76
33.28
40.96
52.480000000000004
57.6
66.56
72.96000000000001
75.52
79.36
75.52
61.44
46.08
25.6
11.52
-0.005
-6.405
-10.245000000000001
-10.245000000000001
-8.965
-7.6850000000000005
-7.6850000000000005
-6.405
-8.965
-3.845
-6.405
-10.245000000000001
-8.965
-7.6850000000000005
-8.965
-14.085
-14.085
-11.525
-14.085
-15.365
-12.805
0.0
11.52
11.52
11.52
28.16
23.04
15.36
-1.285
-3.845
-24.325
-29.445
-28.165
-26.885
-30.725
-26.885
-29.445
-19.205000000000002
-17.925
35.84
106.24000000000001
-69.125
-103.685
-56.325
-33.285000000000004
-24.325
-28.165
-26.885
-24.325
-21.765
-23.045
-19.205000000000002
-23.045
-15.365
-10.245000000000001
-8.965
-7.6850000000000005
0.0
1.28
8.96
17.92
30.72
35.84
40.96
53.76
60.160000000000004
66.56
78.08
80.64
79.36
71.68
53.76
29.44
19.2
2.56
-5.125
-8.965
-10.245000000000001
-12.805
-6.405
-10.245000000000001
-8.965
-6.405
-6.405
-6.405
-8.965
-7.6850000000000005
-2.565
-8.965
-8.965
-8.965
-10.245000000000001
-15.365
-11.525
-10.245000000000001
-1.285
11.52
15.36
16.64
29.44
25.6
15.36
1.28
-5.125
-19.205000000000002
-28.165
-25.605
-23.045
-35.845
-28.165
-26.885
-24.325
-15.365
39.68
128.0
-38.405
-90.885
-67.845
-40.965
-23.045
-23.045
-25.605
-26.885
-21.765
-29.445
-19.205000000000002
-19.205000000000002
-11.525
-17.925
-8.965
-10.245000000000001
0.0
-1.285
5.12
16.64
28.16
34.56
40.96
53.76
62.72
72.96000000000001
79.36
74.24
79.36
70.4
49.92
30.72
14.08
2.56
-3.845
-7.6850000000000005
-15.365
-14.085
-12.805
-10.245000000000001
-11.525
-14.085
-5.125
-3.845
-10.245000000000001
-5.125
-7.6850000000000005
-16.645
-7.6850000000000005
-17.925
-11.525
-16.645
-12.805
-16.645
-15.365
-12.805
3.84
6.4
11.52
15.36
28.16
17.92
2.56
-3.845
-8.965
-25.605
-28.165
-33.285000000000004
-28.165
-35.845
-25.605
-30.725
-15.365
0.0
79.36
112.64
-101.125
-85.765
-42.245
-17.925
-24.325
-32.005
-25.605
-24.325
-24.325
-25.605
-17.925
-15.365
-8.965
-15.365
-10.245000000000001
-1.285
1.28
0.0
12.8
16.64
30.72
39.68
48.64
51.2
65.28
71.68
76.8
76.8
72.96000000000001
62.72
48.64
23.04
10.24
-0.005
-3.845
-6.405
-10.245000000000001
-11.525
-12.805
-10.245000000000001
-8.965
-6.405
-8.965
-6.405
-7.6850000000000005
-7.6850000000000005
-8.965
-10.245000000000001
-14.085
-10.245000000000001
-14.085
-14.085
-16.645
-12.805
-16.645
-1.285
6.4
14.08
15.36
33.28
20.48
8.96
-2.565
-6.405
-25.605
-26.885
-34.565
-26.885
-29.445
-24.325
-32.005
-25.605
-24.325
42.24
117.76
-106.245
-112.645
-57.605000000000004
-23.045
-23.045
-29.445
-28.165
-30.725
-24.325
-26.885
-23.045
-23.045
-16.645
-20.485
-14.085
-12.805
-2.565
0.0
7.68
12.8
24.32
32.0
44.800000000000004
49.92
58.88
64.0
74.24
75.52
76.8
66.56
49.92
29.44
14.08
0.0
-5.125
-8.965
-11.525
-12.805
-11.525
-15.365
-11.525
-7.6850000000000005
-8.965
-5.125
-10.245000000000001
-8.965
-10.245000000000001
-3.845
-7.6850000000000005
-7.6850000000000005
-10.245000000000001
-10.245000000000001
-15.365
-12.805
-11.525
3.84
12.8
19.2
16.64
30.72
24.32
10.24
-2.565
-0.005
-21.765
-24.325
-32.005
-23.045
-28.165
-24.325
-29.445
-19.205000000000002
-19.205000000000002
46.08
125.44
-89.605
-99.845
-55.045
-33.285000000000004
-19.205000000000002
-25.605
-21.765
-23.045
-20.485
-25.605
-20.485
-17.925
-14.085
-12.805
-3.845
-2.565
1.28
-0.005
10.24
17.92
25.6
40.96
51.2
55.04
64.0
72.96000000000001
79.36
81.92
78.08
69.12
51.2
35.84
19.2
1.28
-2.565
-10.245000000000001
-3.845
-7.6850000000000005
-7.6850000000000005
-6.405
-6.405
-8.965
-5.125
-3.845
-7.6850000000000005
-3.845
-7.6850000000000005
-8.965
-8.965
-10.245000000000001
-10.245000000000001
-10.245000000000001
-14.085
-11.525
-7.6850000000000005
1.28
10.24
12.8
11.52
32.0
23.04
15.36
-3.845
-2.565
-21.765
-23.045
-29.445
-29.445
-28.165
-23.045
-30.725
-23.045
-16.645
33.28
129.28
-35.845
-93.44500000000001
-65.285
-42.245
-20.485
-25.605
-23.045
-25.605
-23.045
-20.485
-24.325
-15.365
-10.245000000000001
-15.365
-7.6850000000000005
-8.965
0.0
7.68
11.52
14.08
24.32
30.72
44.800000000000004
56.32
61.44
66.56
71.68
79.36
79.36
74.24
55.04
37.12
20.48
8.96
-1.285
-5.125
-7.6850000000000005
-16.645
-7.6850000000000005
-8.965
-6.405
-7.6850000000000005
-5.125
-2.565
-3.845
-5.125
-10.245000000000001
-12.805
-7.6850000000000005
-6.405
-8.965
-7.6850000000000005
-11.525
-12.805
-12.805
-11.525
-16.645
0.0
12.8
16.64
15.36
32.0
25.6
16.64
1.28
0.0
-21.765
-24.325
-25.605
-20.485
-25.605
-26.885
-28.165
-24.325
-16.645
47.36
135.68
-43.525
-99.845
-57.605000000000004
-26.885
-15.365
-24.325
-26.885
-29.445
-20.485
-21.765
-17.925
-19.205000000000002
-12.805
-14.085
-8.965
-7.6850000000000005
0.0
2.56
8.96
14.08
25.6
32.0
40.96
48.64
60.160000000000004
71.68
76.8
75.52
75.52
67.84
53.76
35.84
20.48
5.12
-1.285
-6.405
-6.405
-5.125
-7.6850000000000005
-11.525
-7.6850000000000005
-6.405
-6.405
-3.845
-6.405
-3.845
-8.965
-5.125
-11.525
-8.965
-16.645
-14.085
-11.525
-16.645
-16.645
-15.365
-15.365
-0.005
10.24
11.52
12.8
30.72
24.32
10.24
0.0
-0.005
-17.925
-26.885
-29.445
-24.325
-24.325
-24.325
-28.165
-25.605
-25.605
26.88
106.24000000000001
-55.045
-110.08500000000001
-64.005
-30.725
-24.325
-26.885
-24.325
-28.165
-24.325
-25.605
-20.485
-19.205000000000002
-11.525
-14.085
-12.805
-5.125
1.28
0.0
6.4
16.64
24.32
37.12
47.36
52.480000000000004
62.72
70.4
75.52
78.08
83.2
72.96000000000001
55.04
35.84
20.48
6.4
-1.285
-8.965
-8.965
-5.125
-10.245000000000001
-8.965
-5.125
-6.405
-6.405
-6.405
-7.6850000000000005
-5.125
-7.6850000000000005
-7.6850000000000005
-12.805
-11.525
-11.525
-12.805
-15.365
-12.805
-12.805
-11.525
-8.965
6.4
6.4
19.2
17.92
34.56
21.76
7.68
-0.005
-5.125
-24.325
-24.325
-30.725
-19.205000000000002
-25.605
-21.765
-30.725
-16.645
-14.085
44.800000000000004
129.28
-89.605
-92.165
-58.885
-32.005
-24.325
-28.165
-21.765
-26.885
-24.325
-23.045
-16.645
-16.645
-14.085
-14.085
-3.845
-6.405
2.56
6.4
14.08
15.36
29.44
37.12
51.2
56.32
70.4
72.96000000000001
79.36
79.36
81.92
70.4
57.6
38.4
15.36
8.96
0.0
-2.565
-7.6850000000000005
-6.405
-7.6850000000000005
-3.845
-8.965
-2.565
-6.405
-7.6850000000000005
-1.285
0.0
-3.845
-7.6850000000000005
-8.965
-7.6850000000000005
-6.405
-10.245000000000001
-10.245000000000001
-12.805
-16.645
-14.085
-3.845
14.08
10.24
14.08
23.04
28.16
19.2
2.56
-0.005
-14.085
-29.445
-21.765
-28.165
-28.165
-30.725
-25.605
-29.445
-14.085
14.08
96.0
87.04
-93.44500000000001
-74.245
-49.925000000000004
-23.045
-25.605
-26.885
-21.765
-26.885
-23.045
-25.605
-20.485
-19.205000000000002
-15.365
-10.245000000000001
-7.6850000000000005
-5.125
0.0
1.28
10.24
17.92
30.72
34.56
49.92
58.88
65.28
67.84
75.52
78.08
76.8
62.72
44.800000000000004
28.16
10.24
0.0
-1.285
-6.405
-5.125
-5.125
-8.965
-8.965
-5.125
-7.6850000000000005
-6.405
-3.845
-7.6850000000000005
-8.965
-6.405
-8.965
-3.845
-8.965
-10.245000000000001
-10.245000000000001
-11.525
-11.525
-10.245000000000001
-12.805
-0.005
8.96
17.92
21.76
30.72
24.32
15.36
0.0
-0.005
-17.925
-24.325
-30.725
-25.605
-28.165
-21.765
-28.165
-26.885
-23.045
48.64
133.12
-62.725
-102.405
-55.045
-25.605
-21.765
-28.165
-24.325
-29.445
-23.045
-21.765
-20.485
-20.485
-15.365
-14.085
-10.245000000000001
-6.405
-2.565
0.0
5.12
11.52
23.04
29.44
44.800000000000004
49.92
61.44
65.28
70.4
70.4
78.08
69.12
51.2
33.28
20.48
7.68
-0.005
-5.125
-10.245000000000001
-10.245000000000001
-7.6850000000000005
-8.965
-3.845
-5.125
-7.6850000000000005
-2.565
-6.405
-5.125
-10.245000000000001
-5.125
-8.965
-8.965
-10.245000000000001
-8.965
-16.645
-11.525
-14.085
-12.805
-7.6850000000000005
7.68
10.24
19.2
20.48
28.16
20.48
3.84
-3.845
-10.245000000000001
-25.605
-24.325
-29.445
-25.605
-30.725
-23.045
-32.005
-21.765
-11.525
55.04
92.16
-120.325
-97.285
-47.365
-20.485
-24.325
-30.725
-21.765
-25.605
-25.605
-25.605
-19.205000000000002
-19.205000000000002
-14.085
-15.365
-7.6850000000000005
-7.6850000000000005
0.0
2.56
11.52
14.08
33.28
37.12
52.480000000000004
52.480000000000004
61.44
71.68
78.08
83.2
78.08
64.0
48.64
26.88
7.68
3.84
-1.285
-3.845
-8.965
-8.965
-10.245000000000001
-5.125
-8.965
-5.125
-7.6850000000000005
0.0
-1.285
-3.845
-5.125
-5.125
-6.405
-5.125
-10.245000000000001
-6.405
-8.965
-10.245000000000001
-1.285
16.64
12.8
20.48
29.44
34.56
28.16
7.68
3.84
-6.405
-25.605
-19.205000000000002
-23.045
-20.485
-25.605
-17.925
-26.885
-6.405
2.56
72.96000000000001
88.32000000000001
-99.845
-80.645
-47.365
-17.925
-19.205000000000002
-25.605
-15.365
-23.045
-20.485
-16.645
-12.805
-15.365
-7.6850000000000005
-7.6850000000000005
-1.285
-1.285
0.0
7.68
14.08
23.04
34.56
40.96
49.92
61.44
71.68
74.24
81.92
84.48
79.36
65.28
47.36
29.44
15.36
1.28
-1.285
-7.6850000000000005
-2.565
-2.565
-6.405
-7.6850000000000005
-3.845
-0.005
-1.285
0.0
-5.125
-1.285
-7.6850000000000005
-5.125
-3.845
-6.405
-5.125
-10.245000000000001
-11.525
-6.405
-5.125
12.8
11.52
21.76
20.48
32.0
26.88
5.12
-1.285
-5.125
-26.885
-21.765
-25.605
-19.205000000000002
-28.165
-23.045
-28.165
-11.525
3.84
85.76
128.0
-92.165
-79.365
-37.125
-14.085
-17.925
-21.765
-21.765
-24.325
-17.925
-24.325
-12.805
-15.365
-11.525
-11.525
-5.125
-5.125
2.56
6.4
16.64
17.92
30.72
34.56
46.08
57.6
66.56
71.68
74.24
75.52
76.8
62.72
44.800000000000004
23.04
10.24
0.0
-0.005
-5.125
-7.6850000000000005
-7.6850000000000005
-11.525
-3.845
-8.965
-6.405
-5.125
-2.565
-6.405
-7.6850000000000005
-6.405
-7.6850000000000005
-6.405
-10.245000000000001
-10.245000000000001
-12.805
-15.365
-14.085
-3.845
14.08
15.36
17.92
30.72
25.6
19.2
1.28
3.84
-17.925
-24.325
-30.725
-26.885
-23.045
-24.325
-29.445
-25.605
-19.205000000000002
30.72
106.24000000000001
-25.605
-107.525
-69.125
-28.165
-19.205000000000002
-24.325
-25.605
-25.605
-24.325
-23.045
-21.765
-19.205000000000002
-15.365
-17.925
-11.525
-8.965
-2.565
0.0
6.4
10.24
20.48
30.72
38.4
46.08
56.32
64.0
66.56
71.68
75.52
66.56
52.480000000000004
33.28
15.36
1.28
-5.125
-7.6850000000000005
-8.965
-10.245000000000001
-12.805
-8.965
-10.245000000000001
-8.965
-10.245000000000001
-8.965
-11.525
-5.125
-8.965
-7.6850000000000005
-11.525
-14.085
-14.085
-8.965
-19.205000000000002
-15.365
-7.6850000000000005
10.24
8.96
20.48
21.76
28.16
20.48
2.56
0.0
-11.525
-25.605
-25.605
-32.005
-24.325
-29.445
-28.165
-35.845
-10.245000000000001
5.12
58.88
78.08
-112.645
-88.325
-47.365
-21.765
-26.885
-29.445
-21.765
-29.445
-20.485
-21.765
-19.205000000000002
-20.485
-10.245000000000001
-8.965
-2.565
-10.245000000000001
0.0
1.28
16.64
21.76
26.88
35.84
46.08
56.32
69.12
75.52
74.24
74.24
76.8
64.0
46.08
21.76
6.4
-0.005
-7.6850000000000005
-11.525
-11.525
-6.405
-17.925
-15.365
-2.565
-7.6850000000000005
-12.805
-6.405
-8.965
-7.6850000000000005
-14.085
-7.6850000000000005
-17.925
-12.805
-14.085
-16.645
-10.245000000000001
1.28
11.52
11.52
14.08
28.16
21.76
17.92
-7.6850000000000005
-1.285
-24.325
-26.885
-30.725
-23.045
-32.005
-28.165
-33.285000000000004
-17.925
-7.6850000000000005
55.04
145.92000000000002
-81.925
-81.925
-46.085
-29.445
-28.165
-32.005
-23.045
-29.445
-20.485
-25.605
-20.485
-24.325
-16.645
-15.365
-8.965
-16.645
-5.125
-1.285
6.4
12.8
19.2
26.88
46.08
47.36
58.88
65.28
69.12
74.24
71.68
65.28
44.800000000000004
24.32
12.8
1.28
-2.565
-10.245000000000001
-10.245000000000001
-12.805
-10.245000000000001
-14.085
-6.405
-10.245000000000001
-7.6850000000000005
-7.6850000000000005
-11.525
-3.845
-12.805
-8.965
-8.965
-17.925
-11.525
-15.365
-16.645
-7.6850000000000005
5.12
8.96
20.48
19.2
30.72
21.76
3.84
-5.125
-10.245000000000001
-25.605
-25.605
-28.165
-25.605
-32.005
-28.165
-29.445
-16.645
12.8
90.88
93.44
-113.925
-83.205
-34.565
-19.205000000000002
-20.485
-29.445
-26.885
-29.445
-23.045
-26.885
-20.485
-19.205000000000002
-15.365
-16.645
-7.6850000000000005
-7.6850000000000005
-0.005
2.56
12.8
15.36
24.32
32.0
44.800000000000004
51.2
62.72
66.56
71.68
74.24
69.12
55.04
39.68
20.48
6.4
-0.005
-1.285
-5.125
-11.525
-8.965
-8.965
-7.6850000000000005
-10.245000000000001
-8.965
-11.525
-5.125
-10.245000000000001
-3.845
-8.965
-11.525
-14.085
-10.245000000000001
-16.645
-14.085
-10.245000000000001
7.68
12.8
16.64
19.2
29.44
21.76
8.96
-1.285
-2.565
-25.605
-25.605
-30.725
-23.045
-29.445
-24.325
-33.285000000000004
-21.765
-11.525
53.76
108.8
-121.605
-98.565
-47.365
-15.365
-21.765
-30.725
-23.045
-29.445
-23.045
-24.325
-20.485
-24.325
-17.925
-15.365
-6.405
-6.405
0.0
-0.005
5.12
12.8
24.32
30.72
42.24
49.92
61.44
64.0
67.84
65.28
67.84
60.160000000000004
42.24
21.76
8.96
0.0
-2.565
-5.125
-7.6850000000000005
-7.6850000000000005
-10.245000000000001
-10.245000000000001
-7.6850000000000005
-7.6850000000000005
-5.125
-3.845
-6.405
-7.6850000000000005
-7.6850000000000005
-10.245000000000001
-5.125
-6.405
-11.525
-5.125
-6.405
3.84
15.36
19.2
15.36
30.72
25.6
16.64
0.0
1.28
-17.925
-24.325
-28.165
-24.325
-25.605
-24.325
-25.605
-20.485
-10.245000000000001
43.52
113.92
-56.325
-103.685
-64.005
-34.565
-21.765
-20.485
-24.325
-23.045
-14.085
-21.765
-16.645
-14.085
-14.085
-10.245000000000001
-2.565
-3.845
0.0
5.12
11.52
12.8
25.6
33.28
47.36
51.2
60.160000000000004
65.28
71.68
80.64
76.8
66.56
55.04
32.0
20.48
7.68
0.0
-8.965
-10.245000000000001
-8.965
-6.405
-0.005
-10.245000000000001
-7.6850000000000005
-7.6850000000000005
-3.845
-3.845
0.0
-14.085
-7.6850000000000005
-10.245000000000001
-10.245000000000001
-15.365
-3.845
-2.565
0.0
10.24
16.64
15.36
37.12
21.76
8.96
-0.005
0.0
-20.485
-24.325
-33.285000000000004
-24.325
-28.165
-28.165
-30.725
-16.645
-10.245000000000001
65.28
149.76
-87.045
-84.485
-47.365
-24.325
-23.045
-28.165
-19.205000000000002
-29.445
-28.165
-25.605
-15.365
-19.205000000000002
-12.805
-21.765
-10.245000000000001
-3.845
0.0
0.0
11.52
12.8
28.16
33.28
46.08
55.04
64.0
64.0
69.12
72.96000000000001
70.4
64.0
43.52
24.32
11.52
0.0
-10.245000000000001
-11.525
-10.245000000000001
-6.405
-7.6850000000000005
-10.245000000000001
-5.125
-6.405
-8.965
-7.6850000000000005
-10.245000000000001
-5.125
-8.965
-14.085
-12.805
-10.245000000000001
-12.805
-15.365
-14.085
-2.565
10.24
15.36
14.08
29.44
23.04
16.64
0.0
2.56
-21.765
-26.885
-29.445
-24.325
-29.445
-26.885
-25.605
-24.325
-14.085
53.76
136.96
-43.525
-97.285
-56.325
-26.885
-21.765
-25.605
-25.605
-28.165
-21.765
-25.605
-23.045
-17.925
-14.085
-17.925
-8.965
-7.6850000000000005
-2.565
0.0
6.4
12.8
21.76
28.16
42.24
46.08
58.88
64.0
66.56
72.96000000000001
69.12
60.160000000000004
44.800000000000004
32.0
19.2
3.84
-3.845
-6.405
-5.125
-5.125
-8.965
-7.6850000000000005
-10.245000000000001
-7.6850000000000005
-7.6850000000000005
-5.125
-6.405
-5.125
-7.6850000000000005
-6.405
-10.245000000000001
-14.085
-12.805
-12.805
-10.245000000000001
1.28
10.24
12.8
16.64
30.72
19.2
11.52
-3.845
-2.565
-21.765
-28.165
-30.725
-25.605
-35.845
-29.445
-33.285000000000004
-25.605
-20.485
42.24
119.04
-85.765
-102.405
-55.045
-25.605
-21.765
-30.725
-26.885
-30.725
-26.885
-30.725
-21.765
-23.045
-16.645
-16.645
-11.525
-8.965
-2.565
-0.005
3.84
10.24
21.76
29.44
42.24
48.64
55.04
58.88
67.84
70.4
70.4
60.160000000000004
42.24
23.04
10.24
-1.285
-7.6850000000000005
-11.525
-12.805
-10.245000000000001
-12.805
-12.805
-11.525
-14.085
-12.805
-11.525
-7.6850000000000005
-10.245000000000001
-11.525
-15.365
-11.525
-12.805
-12.805
-14.085
-16.645
-10.245000000000001
2.56
6.4
14.08
16.64
32.0
19.2
7.68
-5.125
-5.125
-23.045
-24.325
-34.565
-24.325
-30.725
-25.605
-32.005
-21.765
-19.205000000000002
42.24
122.88
-96.005
-92.165
-52.485
-24.325
-24.325
-32.005
-23.045
-23.045
-16.645
-25.605
-17.925
-20.485
-14.085
-12.805
-7.6850000000000005
-3.845
-1.285
1.28
11.52
12.8
29.44
32.0
47.36
51.2
60.160000000000004
64.0
74.24
74.24
67.84
60.160000000000004
46.08
26.88
10.24
-0.005
-5.125
-8.965
-10.245000000000001
-11.525
-3.845
-10.245000000000001
-11.525
-10.245000000000001
0.0
-5.125
-7.6850000000000005
-10.245000000000001
-5.125
-10.245000000000001
-15.365
-14.085
-12.805
-21.765
-15.365
-8.965
3.84
5.12
14.08
17.92
30.72
21.76
7.68
-7.6850000000000005
-15.365
-29.445
-30.725
-32.005
-29.445
-30.725
-25.605
-35.845
-16.645
-3.845
57.6
108.8
-98.565
-80.645
-51.205
-24.325
-25.605
-25.605
-21.765
-33.285000000000004
-21.765
-25.605
-17.925
-20.485
-15.365
-14.085
-3.845
-7.6850000000000005
-1.285
5.12
12.8
16.64
28.16
29.44
43.52
53.76
58.88
64.0
72.96000000000001
71.68
66.56
53.76
39.68
17.92
7.68
0.0
-6.405
-7.6850000000000005
-10.245000000000001
-12.805
-11.525
-10.245000000000001
-8.965
-7.6850000000000005
-7.6850000000000005
-6.405
-5.125
-8.965
-11.525
-11.525
-12.805
-12.805
-14.085
-15.365
-15.365
-11.525
-14.085
0.0
8.96
14.08
16.64
29.44
23.04
15.36
3.84
0.0
-17.925
-28.165
-26.885
-25.605
-29.445
-25.605
-25.605
-24.325
-21.765
33.28
110.08
-39.685
-93.44500000000001
-58.885
-29.445
-20.485
-26.885
-24.325
-25.605
-21.765
-24.325
-20.485
-17.925
-16.645
-16.645
-8.965
-6.405
-1.285
0.0
6.4
14.08
23.04
32.0
40.96
47.36
56.32
62.72
71.68
71.68
71.68
65.28
52.480000000000004
34.56
16.64
2.56
-0.005
-5.125
-6.405
-5.125
-5.125
-5.125
-7.6850000000000005
-3.845
-5.125
-0.005
-1.285
-0.005
-0.005
-2.565
-7.6850000000000005
-3.845
-7.6850000000000005
-10.245000000000001
-10.245000000000001
-7.6850000000000005
-11.525
-10.245000000000001
-8.965
8.96
12.8
20.48
19.2
35.84
24.32
10.24
-2.565
-3.845
-20.485
-20.485
-26.885
-20.485
-32.005
-25.605
-26.885
-19.205000000000002
-15.365
43.52
124.16
-88.325
-88.325
-49.925000000000004
-28.165
-21.765
-25.605
-24.325
-30.725
-19.205000000000002
-25.605
-21.765
-19.205000000000002
-12.805
-17.925
-7.6850000000000005
-6.405
-3.845
0.0
8.96
17.92
26.88
29.44
40.96
51.2
60.160000000000004
66.56
71.68
70.4
74.24
62.72
46.08
28.16
15.36
2.56
-3.845
-7.6850000000000005
-8.965
-12.805
-6.405
-7.6850000000000005
-7.6850000000000005
-7.6850000000000005
-2.565
-6.405
-5.125
-3.845
-6.405
-11.525
-3.845
-6.405
-14.085
-8.965
-11.525
-16.645
-11.525
-15.365
-1.285
15.36
11.52
14.08
30.72
28.16
17.92
0.0
-5.125
-21.765
-24.325
-21.765
-23.045
-28.165
-28.165
-25.605
-24.325
-14.085
26.88
113.92
0.0
-94.72500000000001
-65.285
-39.685
-24.325
-21.765
-28.165
-30.725
-25.605
-20.485
-17.925
-21.765
-19.205000000000002
-10.245000000000001
-8.965
-8.965
-5.125
-1.285
5.12
8.96
17.92
30.72
37.12
44.800000000000004
52.480000000000004
57.6
64.0
67.84
70.4
65.28
55.04
34.56
19.2
7.68
-0.005
-5.125
-10.245000000000001
-8.965
-11.525
-8.965
-8.965
-7.6850000000000005
-6.405
-5.125
-3.845
-5.125
-8.965
-7.6850000000000005
-6.405
-5.125
-14.085
-14.085
-14.085
-15.365
-17.925
-14.085
-7.6850000000000005
6.4
8.96
17.92
19.2
34.56
23.04
8.96
-1.285
-0.005
-21.765
-25.605
-32.005
-23.045
-29.445
-21.765
-29.445
-16.645
-5.125
67.84
129.28
-96.005
-87.045
-42.245
-12.805
-20.485
-29.445
-26.885
-26.885
-24.325
-24.325
-16.645
-20.485
-12.805
-15.365
-5.125
-8.965
-0.005
0.0
8.96
14.08
26.88
32.0
44.800000000000004
47.36
58.88
62.72
66.56
67.84
62.72
57.6
40.96
24.32
10.24
0.0
-3.845
-10.245000000000001
-10.245000000000001
-8.965
-7.6850000000000005
-5.125
-5.125
-5.125
-6.405
-8.965
-7.6850000000000005
-7.6850000000000005
-6.405
-5.125
-10.245000000000001
-8.965
-11.525
-12.805
-16.645
-16.645
-17.925
-15.365
-6.405
7.68
8.96
16.64
28.16
25.6
19.2
0.0
-0.005
-17.925
-26.885
-25.605
-25.605
-28.165
-26.885
-24.325
-32.005
-19.205000000000002
12.8
72.96000000000001
3.84
-103.685
-70.405
-34.565
-17.925
-25.605
-25.605
-25.605
-26.885
-24.325
-23.045
-16.645
-16.645
-15.365
-11.525
-6.405
-2.565
1.28
2.56
14.08
17.92
32.0
38.4
46.08
53.76
60.160000000000004
67.84
74.24
71.68
67.84
55.04
37.12
23.04
7.68
-0.005
-7.6850000000000005
-8.965
-6.405
-7.6850000000000005
-8.965
-5.125
-7.6850000000000005
-5.125
-1.285
-3.845
-5.125
-1.285
-8.965
-5.125
-6.405
-8.965
-11.525
-10.245000000000001
-12.805
-15.365
-8.965
10.24
11.52
24.32
19.2
30.72
26.88
10.24
0.0
-3.845
-25.605
-19.205000000000002
-24.325
-20.485
-29.445
-23.045
-29.445
-10.245000000000001
-6.405
48.64
112.64
-94.72500000000001
-79.365
-49.925000000000004
-26.885
-23.045
-25.605
-21.765
-25.605
-17.925
-24.325
-20.485
-17.925
-8.965
-6.405
-8.965
-5.125
3.84
5.12
16.64
14.08
28.16
35.84
51.2
60.160000000000004
60.160000000000004
62.72
76.8
75.52
74.24
64.0
46.08
21.76
15.36
2.56
-2.565
-6.405
-8.965
-5.125
-5.125
-6.405
-8.965
-1.285
-2.565
-3.845
-6.405
-6.405
-11.525
-5.125
-6.405
-12.805
-15.365
-10.245000000000001
-15.365
-12.805
-11.525
-1.285
8.96
16.64
12.8
30.72
21.76
12.8
-3.845
-1.285
-19.205000000000002
-28.165
-33.285000000000004
-24.325
-34.565
-24.325
-32.005
-17.925
-12.805
52.480000000000004
143.36
-72.965
-87.045
-55.045
-32.005
-23.045
-25.605
-25.605
-30.725
-20.485
-23.045
-16.645
-17.925
-12.805
-10.245000000000001
-5.125
-7.6850000000000005
1.28
0.0
11.52
14.08
21.76
33.28
40.96
52.480000000000004
61.44
62.72
67.84
71.68
71.68
62.72
48.64
30.72
16.64
1.28
0.0
-3.845
-8.965
-8.965
-1.285
-3.845
-3.845
-3.845
-5.125
-3.845
-2.565
-3.845
-3.845
-7.6850000000000005
-6.405
-10.245000000000001
-8.965
-11.525
-15.365
-15.365
-15.365
-6.405
10.24
14.08
17.92
28.16
26.88
20.48
2.56
2.56
-15.365
-24.325
-25.605
-28.165
-20.485
-26.885
-23.045
-26.885
-14.085
20.48
84.48
16.64
-94.72500000000001
-62.725
-28.165
-14.085
-21.765
-23.045
-23.045
-23.045
-21.765
-20.485
-20.485
-16.645
-12.805
-10.245000000000001
-3.845
-0.005
2.56
7.68
15.36
20.48
28.16
40.96
49.92
55.04
64.0
66.56
70.4
71.68
65.28
52.480000000000004
37.12
20.48
6.4
-0.005
-3.845
-6.405
-11.525
-10.245000000000001
-6.405
-7.6850000000000005
-6.405
-5.125
-2.565
-3.845
-6.405
-8.965
-8.965
-7.6850000000000005
-10.245000000000001
-11.525
-12.805
-12.805
-11.525
-10.245000000000001
-2.565
12.8
16.64
17.92
26.88
24.32
23.04
2.56
1.28
-15.365
-24.325
-24.325
-26.885
-26.885
-25.605
-23.045
-24.325
-15.365
16.64
76.8
-0.005
-99.845
-65.285
-34.565
-19.205000000000002
-21.765
-26.885
-24.325
-21.765
-19.205000000000002
-19.205000000000002
-17.925
-16.645
-12.805
-7.6850000000000005
-5.125
0.0
2.56
10.24
15.36
23.04
30.72
39.68
55.04
57.6
66.56
67.84
75.52
74.24
67.84
57.6
38.4
21.76
3.84
-0.005
-5.125
-8.965
-5.125
-5.125
-7.6850000000000005
-6.405
-7.6850000000000005
-5.125
-5.125
-6.405
-3.845
-8.965
-6.405
-11.525
-10.245000000000001
-15.365
-7.6850000000000005
-14.085
-12.805
-6.405
11.52
11.52
12.8
26.88
26.88
24.32
0.0
0.0
-19.205000000000002
-26.885
-25.605
-26.885
-32.005
-28.165
-23.045
-25.605
-12.805
21.76
89.60000000000001
16.64
-98.565
-69.125
-37.125
-29.445
-26.885
-26.885
-21.765
-21.765
-24.325
-21.765
-15.365
-19.205000000000002
-12.805
-10.245000000000001
-5.125
-2.565
2.56
5.12
11.52
24.32
28.16
37.12
48.64
58.88
60.160000000000004
67.84
71.68
71.68
71.68
52.480000000000004
38.4
17.92
1.28
-2.565
-5.125
-7.6850000000000005
-7.6850000000000005
-10.245000000000001
-7.6850000000000005
-8.965
-5.125
-3.845
-5.125
-7.6850000000000005
-7.6850000000000005
-7.6850000000000005
-7.6850000000000005
-10.245000000000001
-8.965
-12.805
-8.965
-12.805
-11.525
-5.125
8.96
12.8
19.2
23.04
32.0
24.32
5.12
0.0
-5.125
-23.045
-23.045
-28.165
-24.325
-28.165
-24.325
-26.885
-14.085
5.12
74.24
90.88
-96.005
-78.08500000000001
-40.965
-17.925
-23.045
-25.605
-23.045
-26.885
-21.765
-24.325
-17.925
-17.925
-12.805
-15.365
-7.6850000000000005
-6.405
1.28
3.84
15.36
20.48
28.16
37.12
48.64
52.480000000000004
61.44
64.0
69.12
70.4
67.84
53.76
38.4
20.48
7.68
-0.005
-6.405
-10.245000000000001
-7.6850000000000005
-6.405
-3.845
-7.6850000000000005
-7.6850000000000005
-3.845
-2.565
-6.405
-5.125
-5.125
-5.125
-7.6850000000000005
-8.965
-11.525
-10.245000000000001
-14.085
-14.085
-11.525
2.56
8.96
15.36
15.36
32.0
23.04
16.64
-0.005
-0.005
-20.485
-26.885
-29.445
-23.045
-26.885
-25.605
-30.725
-17.925
-17.925
44.800000000000004
112.64
-111.36500000000001
-107.525
-55.045
-21.765
-21.765
-29.445
-25.605
-29.445
-21.765
-24.325
-19.205000000000002
-20.485
-14.085
-15.365
-8.965
-6.405
-1.285
1.28
6.4
12.8
25.6
32.0
46.08
52.480000000000004
61.44
64.0
70.4
72.96000000000001
69.12
58.88
43.52
25.6
11.52
0.0
-3.845
-7.6850000000000005
-11.525
-8.965
-12.805
-10.245000000000001
-10.245000000000001
-8.965
-7.6850000000000005
-8.965
-8.965
-8.965
-11.525
-7.6850000000000005
-8.965
-10.245000000000001
-15.365
-14.085
-17.925
-15.365
-11.525
7.68
8.96
15.36
17.92
29.44
21.76
3.84
-3.845
-12.805
-28.165
-24.325
-26.885
-24.325
-28.165
-26.885
-30.725
-12.805
-3.845
52.480000000000004
85.76
-113.925
-93.44500000000001
-51.205
-21.765
-24.325
-28.165
-21.765
-29.445
-24.325
-24.325
-15.365
-19.205000000000002
-8.965
-11.525
-6.405
-7.6850000000000005
0.0
6.4
14.08
19.2
25.6
35.84
52.480000000000004
52.480000000000004
61.44
71.68
74.24
76.8
71.68
58.88
39.68
21.76
8.96
-2.565
-6.405
-8.965
-14.085
-14.085
-12.805
-8.965
-6.405
-8.965
-8.965
-11.525
-11.525
-10.245000000000001
-11.525
-10.245000000000001
-8.965
-14.085
-11.525
-19.205000000000002
-15.365
-12.805
-1.285
8.96
11.52
10.24
30.72
20.48
11.52
-2.565
-2.565
-24.325
-24.325
-33.285000000000004
-28.165
-28.165
-29.445
-26.885
-23.045
-19.205000000000002
24.32
113.92
-44.805
-94.72500000000001
-69.125
-46.085
-28.165
-30.725
-26.885
-29.445
-26.885
-24.325
-19.205000000000002
-21.765
-10.245000000000001
-15.365
-6.405
-10.245000000000001
-0.005
3.84
2.56
16.64
24.32
30.72
39.68
49.92
62.72
67.84
74.24
72.96000000000001
76.8
67.84
48.64
35.84
15.36
-1.285
-5.125
-6.405
-10.245000000000001
-15.365
-10.245000000000001
-5.125
-7.6850000000000005
-10.245000000000001
-10.245000000000001
-6.405
-6.405
-6.405
-7.6850000000000005
-7.6850000000000005
-8.965
-11.525
-10.245000000000001
-10.245000000000001
-11.525
-14.085
-12.805
-2.565
11.52
12.8
14.08
29.44
24.32
16.64
0.0
-0.005
-16.645
-25.605
-28.165
-25.605
-26.885
-28.165
-28.165
-25.605
-15.365
33.28
120.32000000000001
-12.805
-92.165
-62.725
-34.565
-20.485
-23.045
-24.325
-24.325
-19.205000000000002
-19.205000000000002
-20.485
-16.645
-12.805
-15.365
-10.245000000000001
-5.125
-1.285
1.28
10.24
15.36
25.6
30.72
42.24
49.92
61.44
65.28
70.4
71.68
75.52
66.56
49.92
32.0
15.36
2.56
-5.125
-8.965
-10.245000000000001
-10.245000000000001
-11.525
-8.965
-10.245000000000001
-6.405
-5.125
-5.125
-5.125
-6.405
-7.6850000000000005
-5.125
-5.125
-7.6850000000000005
-11.525
-8.965
-11.525
-11.525
-14.085
-16.645
-8.965
10.24
8.96
16.64
19.2
28.16
23.04
6.4
-0.005
-6.405
-28.165
-24.325
-26.885
-20.485
-25.605
-20.485
-28.165
-11.525
-5.125
53.76
79.36
-122.885
-94.72500000000001
-42.245
-14.085
-20.485
-26.885
-17.925
-21.765
-17.925
-20.485
-16.645
-16.645
-11.525
-10.245000000000001
-5.125
-2.565
1.28
5.12
14.08
16.64
30.72
39.68
49.92
57.6
67.84
72.96000000000001
76.8
76.8
74.24
62.72
43.52
26.88
11.52
0.0
-5.125
-8.965
-10.245000000000001
-11.525
-8.965
-8.965
-7.6850000000000005
-6.405
-7.6850000000000005
-6.405
-7.6850000000000005
-6.405
-8.965
-7.6850000000000005
-8.965
-11.525
-14.085
-14.085
-15.365
-11.525
-16.645
-15.365
-8.965
7.68
5.12
14.08
15.36
23.04
19.2
0.0
-5.125
-15.365
-30.725
-23.045
-30.725
-25.605
-34.565
-24.325
-29.445
-17.925
-8.965
49.92
81.92
-117.765
-96.005
-53.765
-28.165
-26.885
-25.605
-26.885
-30.725
-24.325
-28.165
-17.925
-19.205000000000002
-15.365
-14.085
-5.125
-6.405
2.56
0.0
12.8
17.92
29.44
35.84
49.92
60.160000000000004
70.4
70.4
76.8
76.8
78.08
64.0
47.36
23.04
8.96
3.84
-2.565
-7.6850000000000005
-11.525
-7.6850000000000005
-6.405
-7.6850000000000005
-10.245000000000001
-5.125
-6.405
-5.125
0.0
-6.405
-3.845
-3.845
-7.6850000000000005
-8.965
-3.845
-8.965
-8.965
-10.245000000000001
-10.245000000000001
-11.525
1.28
16.64
16.64
16.64
34.56
28.16
19.2
3.84
-1.285
-16.645
-20.485
-29.445
-21.765
-23.045
-19.205000000000002
-26.885
-20.485
-16.645
25.6
119.04
-33.285000000000004
-93.44500000000001
-67.845
-48.645
-29.445
-25.605
-23.045
-25.605
-20.485
-24.325
-21.765
-17.925
-14.085
-15.365
-8.965
-3.845
0.0
0.0
6.4
16.64
24.32
33.28
43.52
53.76
65.28
67.84
79.36
79.36
85.76
75.52
56.32
37.12
20.48
6.4
0.0
-2.565
-14.085
-10.245000000000001
-10.245000000000001
-7.6850000000000005
-8.965
-1.285
-2.565
-3.845
-2.565
-1.285
-6.405
-5.125
-7.6850000000000005
-3.845
-10.245000000000001
-7.6850000000000005
-8.965
-8.965
-12.805
-11.525
-11.525
2.56
11.52
15.36
14.08
33.28
25.6
14.08
-0.005
0.0
-24.325
-25.605
-25.605
-25.605
-33.285000000000004
-20.485
-26.885
-24.325
-21.765
38.4
134.4
-64.005
-97.285
-60.165
-33.285000000000004
-24.325
-26.885
-25.605
-28.165
-21.765
-25.605
-20.485
-20.485
-15.365
-15.365
-8.965
-10.245000000000001
-0.005
0.0
5.12
14.08
26.88
28.16
43.52
52.480000000000004
61.44
69.12
69.12
71.68
75.52
65.28
49.92
32.0
15.36
2.56
-2.565
-11.525
-10.245000000000001
-10.245000000000001
-10.245000000000001
-8.965
-10.245000000000001
-10.245000000000001
-5.125
-5.125
-5.125
-7.6850000000000005
-6.405
-6.405
-6.405
-8.965
-11.525
-10.245000000000001
-11.525
-10.245000000000001
-14.085
-14.085
-12.805
-11.525
2.56
10.24
14.08
16.64
33.28
24.32
12.8
0.0
0.0
-19.205000000000002
-24.325
-26.885
-23.045
-26.885
-23.045
-26.885
-24.325
-24.325
35.84
115.2
-78.08500000000001
-110.08500000000001
-67.845
-33.285000000000004
-16.645
-25.605
-21.765
-25.605
-20.485
-24.325
-17.925
-15.365
-15.365
-11.525
-6.405
-5.125
0.0
0.0
11.52
15.36
26.88
30.72
46.08
55.04
64.0
69.12
72.96000000000001
79.36
79.36
71.68
57.6
38.4
17.92
3.84
-0.005
-5.125
-8.965
-11.525
-8.965
-10.245000000000001
-8.965
-6.405
-5.125
-3.845
-5.125
-3.845
-1.285
-3.845
-7.6850000000000005
-3.845
-8.965
-8.965
-7.6850000000000005
-7.6850000000000005
-12.805
-8.965
-14.085
-10.245000000000001
-2.565
10.24
14.08
20.48
25.6
28.16
19.2
3.84
-0.005
-11.525
-28.165
-20.485
-24.325
-21.765
-23.045
-20.485
-25.605
-15.365
1.28
72.96000000000001
66.56
-110.08500000000001
-85.765
-49.925000000000004
-24.325
-17.925
-24.325
-20.485
-23.045
-15.365
-21.765
-12.805
-15.365
-10.245000000000001
-8.965
-5.125
-0.005
3.84
1.28
14.08
21.76
34.56
37.12
46.08
56.32
69.12
74.24
80.64
81.92
76.8
62.72
44.800000000000004
29.44
12.8
1.28
-7.6850000000000005
-12.805
-6.405
-6.405
-8.965
-10.245000000000001
-11.525
-6.405
-6.405
-3.845
-2.565
-2.565
-7.6850000000000005
-8.965
-7.6850000000000005
-8.965
-14.085
-7.6850000000000005
-15.365
-14.085
-16.645
-15.365
-10.245000000000001
14.08
6.4
12.8
19.2
34.56
23.04
0.0
-2.565
-10.245000000000001
-26.885
-24.325
-26.885
-20.485
-28.165
-23.045
-26.885
-12.805
2.56
78.08
103.68
-104.965
-80.645
-52.485
-26.885
-23.045
-26.885
-19.205000000000002
-32.005
-20.485
-19.205000000000002
-16.645
-16.645
-16.645
-11.525
-2.565
-7.6850000000000005
0.0
2.56
16.64
19.2
29.44
35.84
44.800000000000004
56.32
71.68
76.8
81.92
87.04
78.08
67.84
52.480000000000004
33.28
11.52
1.28
1.28
-7.6850000000000005
-10.245000000000001
-7.6850000000000005
-11.525
-7.6850000000000005
-5.125
-5.125
-2.565
-3.845
-3.845
-1.285
-3.845
-6.405
-6.405
-8.965
-10.245000000000001
-5.125
-8.965
-11.525
-11.525
-12.805
-8.965
12.8
12.8
21.76
17.92
32.0
28.16
11.52
0.0
-2.565
-23.045
-21.765
-20.485
-21.765
-24.325
-19.205000000000002
-28.165
-15.365
-7.6850000000000005
72.96000000000001
134.4
-103.685
-87.045
-40.965
-17.925
-16.645
-25.605
-21.765
-23.045
-17.925
-23.045
-12.805
-16.645
-8.965
-14.085
-6.405
-7.6850000000000005
0.0
1.28
15.36
16.64
28.16
33.28
44.800000000000004
55.04
66.56
70.4
75.52
76.8
75.52
65.28
48.64
29.44
11.52
2.56
-1.285
-3.845
-7.6850000000000005
-8.965
-10.245000000000001
-8.965
-10.245000000000001
-3.845
-5.125
-3.845
-3.845
-3.845
-3.845
-5.125
-8.965
-10.245000000000001
-12.805
-10.245000000000001
-11.525
-11.525
-12.805
-11.525
-11.525
1.28
11.52
12.8
14.08
32.0
23.04
12.8
0.0
0.0
-24.325
-23.045
-28.165
-23.045
-28.165
-21.765
-28.165
-24.325
-24.325
37.12
112.64
-97.285
-117.765
-69.125
-32.005
-20.485
-25.605
-24.325
-26.885
-20.485
-24.325
-20.485
-21.765
-12.805
-15.365
-11.525
-7.6850000000000005
0.0
0.0
7.68
12.8
23.04
29.44
46.08
53.76
60.160000000000004
67.84
78.08
80.64
76.8
70.4
56.32
35.84
16.64
7.68
-3.845
-7.6850000000000005
-7.6850000000000005
-7.6850000000000005
-12.805
-11.525
-11.525
-10.245000000000001
-5.125
-8.965
-5.125
-3.845
-3.845
-7.6850000000000005
-7.6850000000000005
-11.525
-6.405
-12.805
-14.085
-14.085
-10.245000000000001
-11.525
1.28
7.68
16.64
19.2
32.0
21.76
7.68
-5.125
-5.125
-28.165
-24.325
-28.165
-25.605
-33.285000000000004
-20.485
-29.445
-15.365
-17.925
42.24
131.84
-89.605
-101.125
-69.125
-34.565
-23.045
-24.325
-25.605
-30.725
-21.765
-20.485
-12.805
-15.365
-20.485
-14.085
-6.405
-6.405
-0.005
3.84
10.24
14.08
25.6
37.12
49.92
52.480000000000004
70.4
71.68
81.92
81.92
81.92
69.12
52.480000000000004
32.0
17.92
0.0
-1.285
-6.405
-7.6850000000000005
-10.245000000000001
-6.405
-6.405
-7.6850000000000005
-10.245000000000001
-8.965
-6.405
-2.565
-7.6850000000000005
-11.525
-10.245000000000001
-5.125
-10.245000000000001
-15.365
-16.645
-11.525
-11.525
-17.925
-12.805
7.68
7.68
14.08
21.76
26.88
21.76
0.0
-1.285
-11.525
-26.885
-26.885
-29.445
-24.325
-25.605
-26.885
-34.565
-12.805
10.24
92.16
90.88
-97.285
-83.205
-47.365
-20.485
-19.205000000000002
-28.165
-26.885
-24.325
-20.485
-28.165
-19.205000000000002
-16.645
-10.245000000000001
-17.925
-7.6850000000000005
-6.405
1.28
0.0
10.24
17.92
24.32
35.84
44.800000000000004
51.2
64.0
71.68
79.36
81.92
72.96000000000001
60.160000000000004
39.68
24.32
12.8
1.28
-2.565
-12.805
-14.085
-11.525
-10.245000000000001
-8.965
-1.285
-8.965
-7.6850000000000005
-3.845
-11.525
-6.405
-7.6850000000000005
-8.965
-12.805
-7.6850000000000005
-11.525
-8.965
-15.365
-11.525
-14.085
3.84
14.08
20.48
17.92
33.28
23.04
14.08
0.0
-2.565
-24.325
-25.605
-29.445
-23.045
-25.605
-21.765
-26.885
-19.205000000000002
-11.525
61.44
140.8
-99.845
-103.685
-46.085
-15.365
-17.925
-23.045
-23.045
-25.605
-19.205000000000002
-21.765
-11.525
-16.645
-10.245000000000001
-12.805
-5.125
-5.125
-1.285
0.0
11.52
16.64
28.16
32.0
47.36
53.76
62.72
65.28
74.24
75.52
75.52
65.28
46.08
29.44
15.36
0.0
-3.845
-8.965
-8.965
-10.245000000000001
-11.525
-8.965
-11.525
-10.245000000000001
-8.965
-7.6850000000000005
-8.965
-7.6850000000000005
-8.965
-8.965
-10.245000000000001
-11.525
-14.085
-16.645
-17.925
-15.365
-17.925
-15.365
-10.245000000000001
7.68
3.84
15.36
19.2
23.04
17.92
2.56
-1.285
-12.805
-28.165
-25.605
-32.005
-28.165
-30.725
-25.605
-34.565
-17.925
-5.125
55.04
61.44
-125.44500000000001
-99.845
-49.925000000000004
-20.485
-24.325
-29.445
-23.045
-24.325
-21.765
-26.885
-14.085
-17.925
-14.085
-14.085
-8.965
-0.005
2.56
2.56
11.52
15.36
25.6
38.4
47.36
57.6
67.84
67.84
71.68
74.24
80.64
61.44
43.52
23.04
5.12
-1.285
-8.965
-11.525
-8.965
-10.245000000000001
-12.805
-12.805
-16.645
-12.805
-7.6850000000000005
-2.565
-3.845
-12.805
-12.805
-7.6850000000000005
-12.805
-5.125
-16.645
-14.085
-15.365
-17.925
-15.365
3.84
7.68
10.24
7.68
29.44
17.92
14.08
-7.6850000000000005
-7.6850000000000005
-26.885
-26.885
-30.725
-29.445
-30.725
-26.885
-29.445
-24.325
-19.205000000000002
34.56
129.28
-66.565
-101.125
-66.565
-44.805
-26.885
-20.485
-28.165
-25.605
-20.485
-24.325
-16.645
-21.765
-12.805
-14.085
-7.6850000000000005
-3.845
-7.6850000000000005
1.28
11.52
16.64
21.76
28.16
39.68
52.480000000000004
66.56
67.84
72.96000000000001
79.36
80.64
72.96000000000001
56.32
32.0
20.48
5.12
-3.845
-14.085
-2.565
-14.085
-10.245000000000001
-8.965
-14.085
-3.845
-11.525
-14.085
-6.405
-6.405
-5.125
-8.965
-10.245000000000001
-16.645
-6.405
-10.245000000000001
-15.365
-17.925
-12.805
-7.6850000000000005
7.68
10.24
15.36
20.48
32.0
24.32
6.4
-0.005
-8.965
-24.325
-20.485
-30.725
-23.045
-28.165
-25.605
-29.445
-16.645
-5.125
83.2
138.24
-99.845
-84.485
-46.085
-19.205000000000002
-20.485
-26.885
-19.205000000000002
-26.885
-21.765
-21.765
-14.085
-16.645
-11.525
-10.245000000000001
-5.125
-2.565
1.28
3.84
7.68
16.64
29.44
34.56
49.92
52.480000000000004
65.28
70.4
78.08
76.8
78.08
64.0
44.800000000000004
29.44
12.8
0.0
-2.565
-6.405
-5.125
-8.965
-7.6850000000000005
-8.965
-10.245000000000001
-7.6850000000000005
-3.845
-0.005
-3.845
-6.405
-6.405
-6.405
-10.245000000000001
-6.405
-14.085
-5.125
-11.525
-11.525
-12.805
5.12
14.08
17.92
17.92
32.0
28.16
14.08
0.0
0.0
-20.485
-24.325
-26.885
-24.325
-29.445
-21.765
-28.165
-24.325
-20.485
44.800000000000004
126.72
-92.165
-104.965
-60.165
-24.325
-17.925
-21.765
-20.485
-28.165
-17.925
-23.045
-15.365
-16.645
-11.525
-14.085
-6.405
-6.405
0.0
1.28
10.24
15.36
28.16
33.28
46.08
52.480000000000004
64.0
67.84
72.96000000000001
78.08
78.08
69.12
51.2
33.28
21.76
6.4
-0.005
-5.125
-6.405
-8.965
-5.125
-6.405
-3.845
-5.125
-3.845
-10.245000000000001
-5.125
-5.125
-5.125
-8.965
-7.6850000000000005
-10.245000000000001
-11.525
-11.525
-10.245000000000001
-12.805
-16.645
-1.285
11.52
10.24
12.8
25.6
23.04
16.64
0.0
-2.565
-19.205000000000002
-35.845
-33.285000000000004
-29.445
-30.725
-33.285000000000004
-24.325
-23.045
-21.765
12.8
79.36
14.08
-107.525
-84.485
-48.645
-19.205000000000002
-30.725
-26.885
-24.325
-25.605
-24.325
-21.765
-21.765
-16.645
-11.525
-11.525
-6.405
-7.6850000000000005
-1.285
3.84
8.96
20.48
26.88
28.16
44.800000000000004
60.160000000000004
60.160000000000004
67.84
72.96000000000001
69.12
71.68
56.32
42.24
17.92
3.84
-3.845
-15.365
-15.365
-14.085
-17.925
-15.365
-12.805
-15.365
-11.525
-8.965
-11.525
-12.805
-10.245000000000001
-15.365
-19.205000000000002
-10.245000000000001
-19.205000000000002
-14.085
-16.645
-16.645
-19.205000000000002
0.0
2.56
12.8
11.52
25.6
17.92
7.68
-8.965
-7.6850000000000005
-29.445
-24.325
-26.885
-24.325
-35.845
-29.445
-28.165
-23.045
-16.645
48.64
139.52
-88.325
-96.005
-60.165
-34.565
-28.165
-32.005
-21.765
-21.765
-21.765
-25.605
-11.525
-17.925
-5.125
-14.085
-6.405
-6.405
1.28
6.4
16.64
15.36
24.32
28.16
44.800000000000004
51.2
62.72
67.84
70.4
74.24
71.68
61.44
46.08
28.16
20.48
12.8
-6.405
-12.805
-11.525
-5.125
-6.405
-14.085
-8.965
-10.245000000000001
-10.245000000000001
-8.965
-3.845
-16.645
-11.525
-11.525
-7.6850000000000005
-17.925
-14.085
-15.365
-19.205000000000002
-19.205000000000002
-12.805
-11.525
11.52
8.96
15.36
21.76
29.44
21.76
2.56
-1.285
-12.805
-30.725
-25.605
-32.005
-24.325
-25.605
-26.885
-26.885
-12.805
8.96
87.04
84.48
-107.525
-84.485
-40.965
-20.485
-23.045
-28.165
-25.605
-24.325
-19.205000000000002
-26.885
-19.205000000000002
-23.045
-14.085
-11.525
-7.6850000000000005
-12.805
0.0
1.28
8.96
12.8
25.6
34.56
39.68
51.2
62.72
70.4
72.96000000000001
72.96000000000001
70.4
57.6
40.96
25.6
10.24
0.0
-3.845
-10.245000000000001
-12.805
-12.805
-14.085
-11.525
-14.085
-11.525
-7.6850000000000005
-10.245000000000001
-10.245000000000001
-7.6850000000000005
-12.805
-11.525
-14.085
-15.365
-16.645
-12.805
-16.645
-14.085
-11.525
3.84
11.52
16.64
15.36
29.44
19.2
11.52
-1.285
0.0
-21.765
-25.605
-29.445
-25.605
-30.725
-24.325
-29.445
-25.605
-20.485
40.96
122.88
-71.685
-102.405
-62.725
-25.605
-21.765
-24.325
-21.765
-25.605
-19.205000000000002
-23.045
-16.645
-17.925
-12.805
-12.805
-6.405
-6.405
-0.005
0.0
8.96
14.08
25.6
34.56
43.52
47.36
62.72
64.0
67.84
74.24
75.52
64.0
52.480000000000004
32.0
19.2
6.4
-2.565
-5.125
-8.965
-10.245000000000001
-14.085
-7.6850000000000005
-6.405
-5.125
-3.845
-6.405
-7.6850000000000005
-8.965
-10.245000000000001
-6.405
-7.6850000000000005
-8.965
-10.245000000000001
-14.085
-12.805
-8.965
-10.245000000000001
7.68
6.4
19.2
20.48
30.72
24.32
10.24
-0.005
-6.405
-25.605
-19.205000000000002
-29.445
-20.485
-34.565
-17.925
-26.885
-8.965
-10.245000000000001
52.480000000000004
128.0
-102.405
-93.44500000000001
-57.605000000000004
-29.445
-25.605
-24.325
-23.045
-25.605
-23.045
-25.605
-15.365
-16.645
-16.645
-10.245000000000001
-1.285
-7.6850000000000005
-0.005
1.28
8.96
19.2
23.04
35.84
44.800000000000004
47.36
61.44
72.96000000000001
80.64
71.68
74.24
69.12
51.2
25.6
15.36
-3.845
-0.005
-6.405
-6.405
-15.365
-6.405
-8.965
-11.525
-6.405
-3.845
-10.245000000000001
-7.6850000000000005
-8.965
-2.565
-6.405
-10.245000000000001
-12.805
-10.245000000000001
-14.085
-8.965
-11.525
0.0
7.68
15.36
16.64
37.12
29.44
16.64
0.0
0.0
-11.525
-28.165
-28.165
-26.885
-26.885
-24.325
-25.605
-20.485
-21.765
57.6
151.04
-46.085
-96.005
-52.485
-25.605
-16.645
-24.325
-21.765
-25.605
-19.205000000000002
-21.765
-15.365
-19.205000000000002
-17.925
-14.085
-5.125
-6.405
0.0
1.28
8.96
11.52
15.36
29.44
40.96
46.08
58.88
66.56
70.4
72.96000000000001
72.96000000000001
66.56
46.08
33.28
19.2
6.4
-5.125
-8.965
-8.965
-10.245000000000001
-6.405
-7.6850000000000005
-10.245000000000001
-6.405
-8.965
-7.6850000000000005
-6.405
-2.565
-6.405
-10.245000000000001
-11.525
-12.805
-12.805
-14.085
-11.525
-12.805
-8.965
8.96
11.52
17.92
26.88
28.16
26.88
1.28
0.0
-8.965
-25.605
-23.045
-20.485
-21.765
-25.605
-23.045
-25.605
-8.965
26.88
99.84
47.36
-112.645
-78.08500000000001
-30.725
-12.805
-23.045
-28.165
-21.765
-23.045
-20.485
-21.765
-16.645
-19.205000000000002
-15.365
-15.365
-6.405
-5.125
0.0
5.12
12.8
19.2
28.16
38.4
44.800000000000004
55.04
64.0
67.84
71.68
71.68
66.56
55.04
38.4
23.04
11.52
5.12
-3.845
-5.125
-6.405
-10.245000000000001
-7.6850000000000005
-5.125
-3.845
-5.125
-2.565
-5.125
-3.845
-5.125
-6.405
-7.6850000000000005
-7.6850000000000005
-8.965
-11.525
-12.805
-11.525
-14.085
0.0
11.52
14.08
15.36
30.72
23.04
16.64
-0.005
0.0
-19.205000000000002
-26.885
-28.165
-28.165
-29.445
-25.605
-32.005
-25.605
-15.365
32.0
102.4
-47.365
-107.525
-67.845
-30.725
-19.205000000000002
-20.485
-25.605
-29.445
-25.605
-21.765
-19.205000000000002
-20.485
-15.365
-12.805
-10.245000000000001
-7.6850000000000005
-0.005
3.84
5.12
16.64
21.76
24.32
43.52
53.76
55.04
58.88
69.12
72.96000000000001
74.24
62.72
51.2
34.56
19.2
3.84
0.0
-3.845
-8.965
-10.245000000000001
-7.6850000000000005
-2.565
-1.285
-5.125
-7.6850000000000005
-3.845
-7.6850000000000005
-5.125
-5.125
-3.845
-10.245000000000001
-8.965
-12.805
-11.525
-11.525
-12.805
-5.125
14.08
10.24
15.36
28.16
29.44
17.92
5.12
1.28
-16.645
-28.165
-23.045
-23.045
-29.445
-29.445
-24.325
-25.605
-12.805
25.6
88.32000000000001
26.88
-96.005
-72.965
-46.085
-17.925
-21.765
-25.605
-25.605
-26.885
-19.205000000000002
-14.085
-20.485
-12.805
-15.365
-17.925
-5.125
1.28
6.4
3.84
12.8
16.64
28.16
35.84
48.64
55.04
60.160000000000004
67.84
70.4
70.4
69.12
55.04
35.84
23.04
2.56
-1.285
-6.405
-7.6850000000000005
-6.405
-10.245000000000001
-8.965
-6.405
-2.565
-8.965
-2.565
-2.565
-8.965
-5.125
-10.245000000000001
-8.965
-7.6850000000000005
-12.805
-7.6850000000000005
-12.805
-16.645
-7.6850000000000005
10.24
11.52
17.92
24.32
25.6
19.2
3.84
-0.005
-19.205000000000002
-28.165
-24.325
-30.725
-23.045
-24.325
-26.885
-29.445
-11.525
30.72
107.52
56.32
-96.005
-71.685
-35.845
-24.325
-20.485
-28.165
-24.325
-29.445
-24.325
-21.765
-17.925
-17.925
-12.805
-5.125
-7.6850000000000005
-2.565
1.28
10.24
10.24
21.76
29.44
42.24
52.480000000000004
57.6
65.28
66.56
72.96000000000001
78.08
75.52
56.32
39.68
24.32
16.64
0.0
-3.845
-5.125
-1.285
-6.405
-2.565
-5.125
0.0
-6.405
1.28
-0.005
-3.845
-6.405
-2.565
-7.6850000000000005
-2.565
-5.125
-7.6850000000000005
-11.525
-7.6850000000000005
-3.845
10.24
15.36
20.48
25.6
37.12
28.16
8.96
0.0
-0.005
-15.365
-20.485
-26.885
-20.485
-26.885
-17.925
-25.605
-12.805
3.84
81.92
116.48
-108.805
-87.045
-37.125
-12.805
-20.485
-25.605
-16.645
-24.325
-16.645
-19.205000000000002
-15.365
-15.365
-11.525
-10.245000000000001
-3.845
-2.565
6.4
5.12
11.52
20.48
26.88
35.84
44.800000000000004
52.480000000000004
61.44
66.56
69.12
67.84
67.84
58.88
43.52
28.16
14.08
3.84
1.28
0.0
-2.565
-1.285
-3.845
-3.845
-1.285
-1.285
0.0
-3.845
-0.005
-5.125
-5.125
-8.965
-8.965
-8.965
-8.965
-11.525
-8.965
-8.965
2.56
11.52
19.2
14.08
30.72
20.48
10.24
-3.845
-7.6850000000000005
-34.565
-37.125
-39.685
-32.005
-28.165
-25.605
-33.285000000000004
-21.765
-16.645
47.36
120.32000000000001
-108.805
-103.685
-51.205
-25.605
-28.165
-26.885
-19.205000000000002
-24.325
-17.925
-24.325
-17.925
-17.925
-11.525
-12.805
-7.6850000000000005
-8.965
2.56
6.4
11.52
14.08
26.88
30.72
47.36
55.04
61.44
57.6
66.56
67.84
72.96000000000001
62.72
44.800000000000004
32.0
10.24
-1.285
-6.405
-5.125
-10.245000000000001
-3.845
-7.6850000000000005
-7.6850000000000005
-3.845
-5.125
-6.405
-3.845
-10.245000000000001
-3.845
-11.525
-8.965
-14.085
-3.845
-15.365
-19.205000000000002
-15.365
2.56
14.08
14.08
20.48
30.72
21.76
14.08
-0.005
-0.005
-20.485
-32.005
-28.165
-23.045
-28.165
-23.045
-30.725
-23.045
-14.085
58.88
140.8
-81.925
-93.44500000000001
-53.765
-29.445
-20.485
-25.605
-20.485
-25.605
-16.645
-26.885
-17.925
-12.805
-11.525
-12.805
-3.845
-5.125
1.28
5.12
10.24
15.36
26.88
29.44
46.08
52.480000000000004
60.160000000000004
64.0
74.24
71.68
71.68
62.72
48.64
34.56
19.2
2.56
0.0
-6.405
-1.285
-5.125
-5.125
-5.125
-5.125
0.0
-2.565
-6.405
-1.285
-5.125
-3.845
-5.125
-7.6850000000000005
-10.245000000000001
-7.6850000000000005
-16.645
-7.6850000000000005
-3.845
7.68
11.52
20.48
21.76
34.56
25.6
6.4
0.0
-3.845
-23.045
-23.045
-25.605
-21.765
-28.165
-21.765
-29.445
-12.805
2.56
80.64
129.28
-99.845
-84.485
-39.685
-17.925
-21.765
-26.885
-19.205000000000002
-25.605
-23.045
-25.605
-14.085
-16.645
-14.085
-14.085
-3.845
-6.405
0.0
0.0
11.52
15.36
25.6
35.84
42.24
48.64
57.6
64.0
67.84
66.56
64.0
56.32
38.4
21.76
12.8
1.28
-1.285
-6.405
-2.565
-6.405
-10.245000000000001
-7.6850000000000005
-5.125
-10.245000000000001
-3.845
-2.565
-0.005
-5.125
-6.405
-12.805
-10.245000000000001
-15.365
-10.245000000000001
-16.645
-12.805
-11.525
2.56
14.08
16.64
15.36
29.44
23.04
12.8
0.0
-1.285
-23.045
-23.045
-29.445
-25.605
-30.725
-24.325
-28.165
-16.645
-14.085
57.6
126.72
-106.245
-101.125
-49.925000000000004
-23.045
-23.045
-26.885
-21.765
-23.045
-17.925
-24.325
-20.485
-21.765
-14.085
-14.085
-8.965
-7.6850000000000005
0.0
2.56
10.24
16.64
23.04
26.88
40.96
47.36
56.32
56.32
64.0
65.28
65.28
56.32
42.24
28.16
14.08
0.0
-5.125
-6.405
-7.6850000000000005
-3.845
-7.6850000000000005
-8.965
-6.405
-5.125
-3.845
-2.565
-6.405
-6.405
-8.965
-6.405
-7.6850000000000005
-10.245000000000001
-15.365
-8.965
-17.925
-14.085
-8.965
8.96
6.4
14.08
16.64
32.0
25.6
5.12
-5.125
-10.245000000000001
-29.445
-26.885
-33.285000000000004
-26.885
-32.005
-26.885
-34.565
-19.205000000000002
-8.965
53.76
111.36
-107.525
-101.125
-56.325
-28.165
-26.885
-28.165
-17.925
-24.325
-25.605
-28.165
-17.925
-20.485
-8.965
-12.805
-5.125
-6.405
-0.005
0.0
11.52
16.64
24.32
30.72
40.96
51.2
61.44
64.0
70.4
67.84
67.84
52.480000000000004
38.4
28.16
7.68
-2.565
-5.125
-11.525
-8.965
-10.245000000000001
-7.6850000000000005
-8.965
-8.965
-5.125
-6.405
-10.245000000000001
-2.565
-5.125
-11.525
-16.645
-10.245000000000001
-14.085
-17.925
-17.925
-15.365
-11.525
1.28
8.96
14.08
15.36
33.28
17.92
3.84
1.28
-6.405
-29.445
-26.885
-33.285000000000004
-21.765
-33.285000000000004
-23.045
-28.165
-16.645
-6.405
67.84
143.36
-90.885
-85.765
-47.365
-25.605
-26.885
-30.725
-20.485
-30.725
-24.325
-30.725
-20.485
-19.205000000000002
-20.485
-17.925
-7.6850000000000005
-7.6850000000000005
0.0
0.0
12.8
16.64
25.6
30.72
42.24
46.08
55.04
61.44
67.84
66.56
66.56
53.76
39.68
23.04
6.4
0.0
-6.405
-11.525
-6.405
-15.365
-11.525
-10.245000000000001
-5.125
-8.965
-2.565
-3.845
-8.965
-12.805
-11.525
-10.245000000000001
-12.805
-12.805
-15.365
-16.645
-21.765
-12.805
-5.125
8.96
10.24
14.08
19.2
24.32
16.64
-1.285
-6.405
-17.925
-30.725
-29.445
-29.445
-28.165
-28.165
-29.445
-32.005
-15.365
25.6
106.24000000000001
42.24
-99.845
-70.405
-30.725
-12.805
-23.045
-21.765
-23.045
-23.045
-20.485
-17.925
-14.085
-15.365
-7.6850000000000005
-11.525
-2.565
-2.565
1.28
1.28
12.8
19.2
23.04
37.12
40.96
51.2
56.32
60.160000000000004
64.0
65.28
60.160000000000004
46.08
32.0
17.92
2.56
0.0
-2.565
-10.245000000000001
-8.965
-8.965
-8.965
-5.125
-7.6850000000000005
-3.845
-3.845
-2.565
-2.565
-7.6850000000000005
-7.6850000000000005
-3.845
-7.6850000000000005
-10.245000000000001
-11.525
-10.245000000000001
-12.805
-11.525
-7.6850000000000005
10.24
8.96
16.64
24.32
25.6
20.48
3.84
-0.005
-11.525
-28.165
-25.605
-30.725
-25.605
-32.005
-25.605
-30.725
-17.925
7.68
69.12
29.44
-108.805
-76.805
-37.125
-17.925
-26.885
-29.445
-24.325
-26.885
-20.485
-25.605
-16.645
-20.485
-15.365
-17.925
-7.6850000000000005
-3.845
1.28
7.68
10.24
17.92
30.72
38.4
46.08
53.76
57.6
62.72
64.0
69.12
67.84
49.92
33.28
24.32
1.28
-2.565
-7.6850000000000005
-7.6850000000000005
-7.6850000000000005
-8.965
-7.6850000000000005
-6.405
-6.405
-8.965
-6.405
-10.245000000000001
-5.125
-5.125
-8.965
-12.805
-12.805
-11.525
-12.805
-12.805
-14.085
-14.085
0.0
10.24
16.64
15.36
30.72
25.6
16.64
-3.845
0.0
-21.765
-29.445
-26.885
-26.885
-30.725
-17.925
-28.165
-23.045
-17.925
38.4
133.12
-53.765
-94.72500000000001
-64.005
-35.845
-24.325
-25.605
-20.485
-26.885
-24.325
-25.605
-16.645
-17.925
-8.965
-14.085
-11.525
-6.405
0.0
3.84
11.52
15.36
23.04
32.0
40.96
47.36
58.88
69.12
65.28
67.84
76.8
64.0
44.800000000000004
34.56
12.8
5.12
-5.125
-6.405
-5.125
-5.125
-11.525
-7.6850000000000005
-11.525
-7.6850000000000005
-7.6850000000000005
-0.005
-7.6850000000000005
-15.365
-7.6850000000000005
-10.245000000000001
-14.085
-11.525
-11.525
-14.085
-17.925
-14.085
-14.085
-0.005
11.52
14.08
14.08
30.72
23.04
14.08
0.0
-0.005
-23.045
-25.605
-29.445
-24.325
-32.005
-24.325
-33.285000000000004
-19.205000000000002
-12.805
53.76
148.48
-67.845
-88.325
-48.645
-23.045
-20.485
-25.605
-24.325
-25.605
-21.765
-23.045
-16.645
-20.485
-11.525
-15.365
-7.6850000000000005
-3.845
3.84
2.56
8.96
12.8
23.04
33.28
37.12
47.36
58.88
60.160000000000004
67.84
66.56
66.56
58.88
47.36
29.44
11.52
2.56
-1.285
-5.125
-10.245000000000001
-10.245000000000001
-6.405
-5.125
-3.845
-5.125
-5.125
-0.005
-3.845
-5.125
-6.405
-3.845
-6.405
-10.245000000000001
-10.245000000000001
-7.6850000000000005
-15.365
-11.525
-7.6850000000000005
3.84
15.36
20.48
17.92
34.56
26.88
14.08
0.0
2.56
-21.765
-25.605
-28.165
-23.045
-28.165
-23.045
-28.165
-21.765
-20.485
51.2
128.0
-93.44500000000001
-97.285
-46.085
-15.365
-17.925
-21.765
-19.205000000000002
-25.605
-15.365
-20.485
-14.085
-14.085
-10.245000000000001
-10.245000000000001
-3.845
-2.565
3.84
5.12
17.92
16.64
28.16
33.28
44.800000000000004
53.76
57.6
67.84
72.96000000000001
74.24
70.4
58.88
51.2
26.88
15.36
3.84
-1.285
-1.285
-5.125
-6.405
-5.125
-3.845
-0.005
-2.565
-0.005
-3.845
-2.565
1.28
-5.125
-6.405
-10.245000000000001
-6.405
-5.125
-8.965
-6.405
-8.965
0.0
15.36
16.64
17.92
33.28
25.6
20.48
-0.005
-1.285
-20.485
-23.045
-26.885
-28.165
-30.725
-23.045
-28.165
-17.925
-14.085
38.4
121.60000000000001
-48.645
-94.72500000000001
-60.165
-37.125
-24.325
-25.605
-24.325
-30.725
-23.045
-23.045
-20.485
-20.485
-11.525
-14.085
-7.6850000000000005
-5.125
-0.005
0.0
6.4
15.36
25.6
35.84
39.68
44.800000000000004
55.04
62.72
69.12
75.52
71.68
64.0
55.04
33.28
11.52
3.84
-1.285
-2.565
-11.525
-8.965
-7.6850000000000005
-7.6850000000000005
-5.125
-6.405
-3.845
-6.405
-3.845
-7.6850000000000005
-7.6850000000000005
-8.965
-10.245000000000001
-7.6850000000000005
-10.245000000000001
-8.965
-15.365
-17.925
-8.965
5.12
10.24
8.96
21.76
17.92
19.2
-3.845
-6.405
-20.485
-29.445
-30.725
-30.725
-26.885
-26.885
-25.605
-30.725
-14.085
37.12
115.2
12.8
-93.44500000000001
-65.285
-34.565
-21.765
-25.605
-29.445
-25.605
-24.325
-25.605
-20.485
-16.645
-12.805
-15.365
-11.525
-8.965
-3.845
0.0
5.12
12.8
21.76
29.44
37.12
47.36
56.32
60.160000000000004
62.72
71.68
70.4
60.160000000000004
48.64
32.0
20.48
8.96
-0.005
-5.125
-8.965
-7.6850000000000005
-6.405
-3.845
-3.845
-2.565
-1.285
-0.005
-5.125
-6.405
-12.805
-5.125
-8.965
-7.6850000000000005
-10.245000000000001
-10.245000000000001
-14.085
-12.805
-8.965
5.12
8.96
17.92
16.64
29.44
21.76
7.68
0.0
-5.125
-26.885
-25.605
-29.445
-25.605
-32.005
-24.325
-30.725
-16.645
-6.405
58.88
90.88
-116.485
-92.165
-42.245
-15.365
-21.765
-28.165
-24.325
-24.325
-17.925
-24.325
-17.925
-20.485
-14.085
-12.805
-7.6850000000000005
-3.845
2.56
5.12
11.52
15.36
28.16
33.28
42.24
48.64
57.6
58.88
65.28
70.4
70.4
51.2
38.4
20.48
7.68
-2.565
-5.125
-10.245000000000001
-10.245000000000001
-8.965
-7.6850000000000005
-7.6850000000000005
-3.845
-12.805
-6.405
-2.565
-5.125
-6.405
-16.645
-16.645
-8.965
-12.805
-11.525
-15.365
-20.485
-7.6850000000000005
12.8
5.12
15.36
25.6
23.04
21.76
8.96
-5.125
-16.645
-28.165
-26.885
-37.125
-25.605
-30.725
-25.605
-29.445
-17.925
11.52
76.8
65.28
-97.285
-79.365
-49.925000000000004
-25.605
-24.325
-26.885
-23.045
-26.885
-19.205000000000002
-21.765
-19.205000000000002
-21.765
-8.965
-6.405
-5.125
-3.845
0.0
5.12
11.52
20.48
32.0
34.56
46.08
53.76
56.32
62.72
69.12
74.24
69.12
51.2
34.56
14.08
3.84
-0.005
-5.125
-11.525
-15.365
-12.805
-10.245000000000001
-8.965
-10.245000000000001
-8.965
-3.845
-8.965
-8.965
-11.525
-12.805
-8.965
-14.085
-15.365
-10.245000000000001
-16.645
-19.205000000000002
-6.405
12.8
10.24
14.08
23.04
29.44
21.76
3.84
-0.005
-10.245000000000001
-26.885
-25.605
-29.445
-24.325
-29.445
-23.045
-30.725
-14.085
19.2
94.72
72.96000000000001
-99.845
-72.965
-39.685
-15.365
-24.325
-28.165
-23.045
-24.325
-20.485
-21.765
-17.925
-16.645
-11.525
-10.245000000000001
-5.125
-5.125
0.0
3.84
12.8
16.64
28.16
34.56
44.800000000000004
46.08
57.6
62.72
62.72
66.56
60.160000000000004
49.92
34.56
16.64
5.12
-1.285
-8.965
-8.965
-7.6850000000000005
-10.245000000000001
-5.125
-8.965
-6.405
-5.125
-5.125
-5.125
-5.125
-6.405
-6.405
-12.805
-11.525
-10.245000000000001
-11.525
-14.085
-11.525
-2.565
10.24
11.52
19.2
26.88
25.6
23.04
2.56
1.28
-15.365
-25.605
-23.045
-26.885
-25.605
-26.885
-25.605
-29.445
-16.645
16.64
71.68
5.12
-110.08500000000001
-79.365
-34.565
-16.645
-20.485
-23.045
-24.325
-24.325
-21.765
-20.485
-15.365
-17.925
-14.085
-12.805
-7.6850000000000005
-3.845
0.0
7.68
15.36
21.76
28.16
39.68
48.64
55.04
58.88
65.28
70.4
70.4
66.56
53.76
39.68
20.48
2.56
-0.005
-2.565
-7.6850000000000005
-10.245000000000001
-10.245000000000001
-6.405
-2.565
-0.005
-11.525
-7.6850000000000005
-2.565
-7.6850000000000005
0.0
-10.245000000000001
-10.245000000000001
-11.525
-10.245000000000001
-16.645
-12.805
-8.965
3.84
8.96
16.64
19.2
33.28
24.32
14.08
-2.565
-3.845
-21.765
-23.045
-35.845
-29.445
-28.165
-21.765
-32.005
-19.205000000000002
-12.805
46.08
124.16
-94.72500000000001
-94.72500000000001
-60.165
-34.565
-26.885
-33.285000000000004
-28.165
-30.725
-21.765
-28.165
-17.925
-23.045
-17.925
-19.205000000000002
-10.245000000000001
-5.125
-1.285
0.0
5.12
10.24
25.6
32.0
42.24
47.36
52.480000000000004
60.160000000000004
66.56
70.4
67.84
57.6
42.24
24.32
8.96
-1.285
-1.285
-8.965
-8.965
-10.245000000000001
-11.525
-6.405
-3.845
-5.125
-7.6850000000000005
-7.6850000000000005
-7.6850000000000005
-7.6850000000000005
-6.405
-14.085
-6.405
-15.365
-11.525
-12.805
-14.085
-3.845
10.24
6.4
17.92
26.88
32.0
25.6
-0.005
0.0
-15.365
-28.165
-26.885
-33.285000000000004
-33.285000000000004
-29.445
-29.445
-32.005
-15.365
26.88
107.52
44.800000000000004
-97.285
-70.405
-40.965
-24.325
-24.325
-28.165
-29.445
-29.445
-24.325
-23.045
-17.925
-16.645
-16.645
-12.805
-8.965
-6.405
-0.005
0.0
10.24
15.36
26.88
37.12
42.24
49.92
57.6
61.44
65.28
66.56
60.160000000000004
47.36
30.72
10.24
3.84
-1.285
-7.6850000000000005
-12.805
-5.125
-12.805
-10.245000000000001
-7.6850000000000005
-12.805
-8.965
-5.125
-10.245000000000001
-7.6850000000000005
-11.525
-12.805
-11.525
-15.365
-11.525
-14.085
-14.085
-14.085
-3.845
10.24
10.24
17.92
24.32
28.16
20.48
0.0
3.84
-8.965
-23.045
-26.885
-30.725
-25.605
-24.325
-26.885
-26.885
-11.525
25.6
92.16
24.32
-110.08500000000001
-69.125
-32.005
-20.485
-23.045
-25.605
-25.605
-25.605
-23.045
-20.485
-19.205000000000002
-17.925
-16.645
-12.805
-2.565
-7.6850000000000005
-0.005
2.56
7.68
16.64
29.44
32.0
40.96
51.2
60.160000000000004
60.160000000000004
65.28
64.0
61.44
46.08
29.44
14.08
3.84
-2.565
-12.805
-14.085
-14.085
-11.525
-11.525
-8.965
-5.125
-5.125
-1.285
-10.245000000000001
-11.525
-7.6850000000000005
-8.965
-12.805
-11.525
-12.805
-10.245000000000001
-17.925
-15.365
-7.6850000000000005
3.84
7.68
15.36
15.36
25.6
20.48
7.68
-1.285
-6.405
-29.445
-30.725
-35.845
-23.045
-29.445
-30.725
-30.725
-17.925
-12.805
57.6
107.52
-112.645
-94.72500000000001
-47.365
-23.045
-23.045
-29.445
-21.765
-28.165
-16.645
-21.765
-14.085
-19.205000000000002
-8.965
-12.805
-5.125
-6.405
0.0
3.84
8.96
14.08
24.32
33.28
44.800000000000004
47.36
60.160000000000004
65.28
67.84
71.68
65.28
53.76
39.68
21.76
8.96
-3.845
-6.405
-8.965
-11.525
-10.245000000000001
-10.245000000000001
-11.525
-6.405
-8.965
-3.845
-6.405
-6.405
-10.245000000000001
-8.965
-7.6850000000000005
-5.125
-17.925
-14.085
-14.085
-6.405
-10.245000000000001
5.12
5.12
11.52
24.32
32.0
17.92
10.24
-0.005
-11.525
-23.045
-25.605
-30.725
-21.765
-28.165
-26.885
-28.165
-14.085
-6.405
58.88
122.88
-98.565
-87.045
-49.925000000000004
-25.605
-23.045
-26.885
-24.325
-29.445
-16.645
-21.765
-17.925
-20.485
-11.525
-14.085
-2.565
-5.125
0.0
5.12
10.24
15.36
29.44
33.28
47.36
51.2
62.72
66.56
66.56
75.52
70.4
57.6
42.24
21.76
8.96
0.0
-0.005
-11.525
-15.365
-12.805
-7.6850000000000005
-1.285
-10.245000000000001
-7.6850000000000005
-5.125
-10.245000000000001
-3.845
-7.6850000000000005
-6.405
-14.085
-15.365
-12.805
-10.245000000000001
-12.805
-15.365
-15.365
2.56
8.96
19.2
12.8
28.16
15.36
14.08
-1.285
-5.125
-30.725
-28.165
-35.845
-23.045
-30.725
-29.445
-37.125
-16.645
-11.525
69.12
158.72
-90.885
-92.165
-51.205
-23.045
-24.325
-28.165
-24.325
-30.725
-24.325
-26.885
-19.205000000000002
-17.925
-12.805
-12.805
-7.6850000000000005
-8.965
0.0
5.12
12.8
11.52
23.04
29.44
44.800000000000004
48.64
64.0
65.28
65.28
69.12
71.68
57.6
42.24
26.88
8.96
0.0
-2.565
-11.525
-5.125
-6.405
-10.245000000000001
-14.085
-7.6850000000000005
-5.125
-5.125
-8.965
-7.6850000000000005
-5.125
-11.525
-10.245000000000001
-8.965
-11.525
-8.965
-15.365
-15.365
-17.925
-1.285
12.8
12.8
15.36
29.44
24.32
19.2
-0.005
-1.285
-21.765
-24.325
-25.605
-24.325
-29.445
-21.765
-26.885
-24.325
-12.805
56.32
135.68
-64.005
-101.125
-55.045
-19.205000000000002
-15.365
-26.885
-26.885
-23.045
-23.045
-24.325
-16.645
-19.205000000000002
-14.085
-16.645
-7.6850000000000005
-6.405
0.0
0.0
6.4
12.8
23.04
29.44
38.4
44.800000000000004
58.88
61.44
66.56
70.4
71.68
61.44
44.800000000000004
28.16
11.52
0.0
-5.125
-6.405
-7.6850000000000005
-8.965
-8.965
-8.965
-7.6850000000000005
-6.405
-3.845
-6.405
-5.125
-6.405
-6.405
-11.525
-6.405
-7.6850000000000005
-11.525
-14.085
-14.085
-12.805
-16.645
-5.125
14.08
8.96
20.48
28.16
25.6
21.76
2.56
1.28
-17.925
-24.325
-24.325
-25.605
-23.045
-23.045
-23.045
-24.325
-14.085
19.2
83.2
0.0
-108.805
-74.245
-38.405
-17.925
-25.605
-23.045
-21.765
-20.485
-19.205000000000002
-19.205000000000002
-17.925
-14.085
-10.245000000000001
-8.965
-5.125
-1.285
2.56
7.68
17.92
21.76
32.0
40.96
48.64
56.32
69.12
70.4
75.52
72.96000000000001
66.56
55.04
37.12
16.64
5.12
-0.005
-10.245000000000001
-11.525
-12.805
-8.965
-10.245000000000001
-6.405
-7.6850000000000005
-3.845
-5.125
-5.125
-5.125
-2.565
-10.245000000000001
-10.245000000000001
-14.085
-10.245000000000001
-12.805
-12.805
-14.085
-7.6850000000000005
-10.245000000000001
8.96
6.4
17.92
20.48
33.28
25.6
5.12
-1.285
-7.6850000000000005
-25.605
-24.325
-28.165
-20.485
-23.045
-23.045
-28.165
-16.645
-7.6850000000000005
49.92
102.4
-106.245
-92.165
-52.485
-28.165
-25.605
-26.885
-20.485
-26.885
-23.045
-21.765
-15.365
-19.205000000000002
-15.365
-16.645
-5.125
-7.6850000000000005
1.28
6.4
10.24
14.08
25.6
35.84
44.800000000000004
51.2
61.44
65.28
72.96000000000001
70.4
69.12
57.6
44.800000000000004
21.76
3.84
-1.285
-6.405
-5.125
-8.965
-12.805
-14.085
-7.6850000000000005
-6.405
-3.845
-10.245000000000001
-8.965
-7.6850000000000005
-7.6850000000000005
-11.525
-7.6850000000000005
-11.525
-11.525
-14.085
-10.245000000000001
-23.045
-17.925
-11.525
0.0
6.4
12.8
12.8
30.72
19.2
6.4
-3.845
-3.845
-25.605
-24.325
-33.285000000000004
-29.445
-30.725
-29.445
-32.005
-23.045
-20.485
42.24
136.96
-70.405
-97.285
-61.445
-42.245
-32.005
-32.005
-28.165
-28.165
-26.885
-20.485
-24.325
-19.205000000000002
-16.645
-15.365
-7.6850000000000005
-5.125
1.28
0.0
8.96
11.52
25.6
28.16
40.96
51.2
62.72
65.28
69.12
69.12
76.8
62.72
47.36
30.72
12.8
2.56
-3.845
-8.965
-7.6850000000000005
-14.085
-8.965
-8.965
-3.845
-7.6850000000000005
-8.965
-7.6850000000000005
-3.845
-7.6850000000000005
-10.245000000000001
-7.6850000000000005
-7.6850000000000005
-10.245000000000001
-11.525
-12.805
-11.525
-15.365
-11.525
-7.6850000000000005
8.96
8.96
19.2
25.6
30.72
25.6
6.4
-1.285
-15.365
-28.165
-29.445
-29.445
-26.885
-30.725
-25.605
-30.725
-14.085
11.52
92.16
72.96000000000001
-110.08500000000001
-85.765
-42.245
-19.205000000000002
-23.045
-26.885
-24.325
-28.165
-23.045
-21.765
-17.925
-19.205000000000002
-12.805
-14.085
-11.525
-7.6850000000000005
2.56
1.28
14.08
17.92
24.32
34.56
46.08
55.04
61.44
70.4
71.68
76.8
65.28
53.76
37.12
19.2
6.4
-0.005
-6.405
-7.6850000000000005
-10.245000000000001
-8.965
-7.6850000000000005
-11.525
-8.965
-5.125
-5.125
-3.845
-3.845
-5.125
-7.6850000000000005
-5.125
-10.245000000000001
-7.6850000000000005
-11.525
-10.245000000000001
-15.365
-11.525
-3.845
11.52
12.8
17.92
19.2
25.6
23.04
3.84
-3.845
-7.6850000000000005
-23.045
-23.045
-28.165
-24.325
-29.445
-24.325
-29.445
-16.645
-1.285
56.32
76.8
-113.925
-94.72500000000001
-44.805
-15.365
-19.205000000000002
-24.325
-21.765
-24.325
-24.325
-20.485
-16.645
-17.925
-11.525
-14.085
-5.125
-3.845
2.56
1.28
12.8
17.92
26.88
38.4
49.92
52.480000000000004
65.28
65.28
71.68
74.24
70.4
57.6
40.96
21.76
7.68
0.0
-2.565
-7.6850000000000005
-11.525
-11.525
-14.085
-10.245000000000001
-10.245000000000001
-7.6850000000000005
-7.6850000000000005
-7.6850000000000005
-12.805
-11.525
-8.965
-6.405
-7.6850000000000005
-12.805
-8.965
-14.085
-15.365
-12.805
-5.125
11.52
7.68
12.8
21.76
23.04
21.76
0.0
-2.565
-17.925
-30.725
-29.445
-26.885
-28.165
-29.445
-26.885
-30.725
-20.485
12.8
85.76
14.08
-110.08500000000001
-83.205
-51.205
-21.765
-24.325
-25.605
-23.045
-24.325
-24.325
-23.045
-20.485
-16.645
-12.805
-12.805
-3.845
-6.405
0.0
0.0
14.08
20.48
29.44
34.56
46.08
56.32
61.44
72.96000000000001
74.24
79.36
69.12
51.2
35.84
16.64
5.12
-1.285
-6.405
-11.525
-16.645
-14.085
-11.525
-6.405
-11.525
-14.085
-11.525
-15.365
-5.125
-8.965
-14.085
-16.645
-8.965
-14.085
-14.085
-14.085
-19.205000000000002
-7.6850000000000005
2.56
2.56
12.8
19.2
28.16
17.92
0.0
-6.405
-14.085
-32.005
-24.325
-28.165
-26.885
-28.165
-30.725
-32.005
-11.525
7.68
83.2
79.36
-107.525
-76.805
-46.085
-28.165
-21.765
-28.165
-23.045
-19.205000000000002
-23.045
-25.605
-17.925
-14.085
-10.245000000000001
-12.805
-6.405
-5.125
0.0
5.12
11.52
16.64
33.28
33.28
53.76
58.88
67.84
69.12
78.08
80.64
78.08
61.44
38.4
26.88
7.68
0.0
-6.405
-2.565
-10.245000000000001
-7.6850000000000005
-5.125
-8.965
-14.085
-6.405
-5.125
-5.125
-11.525
-5.125
-8.965
-6.405
-12.805
-16.645
-15.365
-10.245000000000001
-15.365
-11.525
-10.245000000000001
1.28
7.68
17.92
16.64
29.44
23.04
8.96
-0.005
-5.125
-28.165
-25.605
-32.005
-21.765
-25.605
-24.325
-32.005
-15.365
-5.125
69.12
125.44
-111.36500000000001
-93.44500000000001
-47.365
-23.045
-19.205000000000002
-25.605
-21.765
-28.165
-23.045
-24.325
-19.205000000000002
-19.205000000000002
-11.525
-10.245000000000001
-3.845
-7.6850000000000005
-1.285
2.56
12.8
16.64
28.16
33.28
47.36
51.2
65.28
65.28
72.96000000000001
74.24
70.4
60.160000000000004
43.52
24.32
12.8
0.0
-1.285
-7.6850000000000005
-8.965
-6.405
-6.405
-5.125
-5.125
-3.845
-7.6850000000000005
-3.845
-6.405
-5.125
-6.405
-3.845
-8.965
-8.965
-12.805
-8.965
-14.085
-11.525
-11.525
5.12
14.08
16.64
15.36
29.44
21.76
10.24
-0.005
0.0
-23.045
-24.325
-26.885
-20.485
-28.165
-20.485
-28.165
-19.205000000000002
-21.765
42.24
117.76
-106.245
-106.245
-56.325
-23.045
-20.485
-24.325
-20.485
-23.045
-19.205000000000002
-21.765
-16.645
-17.925
-11.525
-15.365
-5.125
-6.405
-0.005
3.84
10.24
19.2
21.76
32.0
46.08
52.480000000000004
65.28
69.12
74.24
75.52
78.08
62.72
46.08
28.16
15.36
1.28
-6.405
-12.805
-10.245000000000001
-14.085
-10.245000000000001
-10.245000000000001
-5.125
-10.245000000000001
-6.405
-5.125
-2.565
-6.405
-3.845
-8.965
-7.6850000000000005
-11.525
-10.245000000000001
-14.085
-12.805
-17.925
-12.805
-8.965
8.96
11.52
20.48
21.76
25.6
21.76
-0.005
-1.285
-7.6850000000000005
-28.165
-25.605
-29.445
-28.165
-26.885
-21.765
-25.605
-14.085
-5.125
53.76
79.36
-110.08500000000001
-87.045
-52.485
-28.165
-16.645
-28.165
-25.605
-21.765
-17.925
-25.605
-17.925
-17.925
-10.245000000000001
-14.085
-2.565
-2.565
3.84
1.28
10.24
15.36
28.16
37.12
46.08
60.160000000000004
64.0
66.56
75.52
76.8
72.96000000000001
60.160000000000004
39.68
21.76
10.24
0.0
-6.405
-12.805
-12.805
-12.805
-10.245000000000001
-7.6850000000000005
-10.245000000000001
-11.525
-7.6850000000000005
-2.565
-5.125
-8.965
-11.525
-12.805
-8.965
-11.525
-16.645
-17.925
-14.085
-11.525
-14.085
-3.845
6.4
12.8
12.8
29.44
26.88
15.36
-2.565
-5.125
-17.925
-28.165
-30.725
-25.605
-38.405
-25.605
-25.605
-23.045
-19.205000000000002
26.88
119.04
-16.645
-99.845
-67.845
-44.805
-28.165
-25.605
-26.885
-21.765
-25.605
-23.045
-14.085
-17.925
-12.805
-10.245000000000001
-10.245000000000001
-7.6850000000000005
-0.005
0.0
10.24
15.36
23.04
30.72
38.4
53.76
60.160000000000004
67.84
74.24
78.08
80.64
71.68
57.6
37.12
20.48
5.12
-1.285
-1.285
-8.965
-8.965
-11.525
-11.525
-3.845
-5.125
-2.565
-6.405
-7.6850000000000005
-2.565
-6.405
-11.525
-10.245000000000001
-11.525
-10.245000000000001
-12.805
-11.525
-8.965
-20.485
-16.645
-6.405
11.52
7.68
21.76
19.2
30.72
23.04
6.4
-3.845
-3.845
-23.045
-23.045
-29.445
-23.045
-24.325
-21.765
-29.445
-17.925
-11.525
66.56
124.16
-107.525
-93.44500000000001
-47.365
-20.485
-23.045
-30.725
-25.605
-29.445
-25.605
-25.605
-16.645
-20.485
-14.085
-15.365
-8.965
-8.965
-2.565
0.0
8.96
12.8
24.32
30.72
42.24
51.2
60.160000000000004
62.72
67.84
72.96000000000001
70.4
56.32
40.96
25.6
8.96
-0.005
-1.285
-14.085
-12.805
-11.525
-10.245000000000001
-10.245000000000001
-7.6850000000000005
-7.6850000000000005
-7.6850000000000005
-3.845
-7.6850000000000005
-5.125
-8.965
-7.6850000000000005
-12.805
-11.525
-12.805
-11.525
-15.365
-11.525
-15.365
-14.085
-14.085
0.0
8.96
14.08
14.08
26.88
23.04
11.52
-1.285
-0.005
-19.205000000000002
-28.165
-28.165
-25.605
-28.165
-25.605
-26.885
-25.605
-23.045
32.0
111.36
-64.005
-107.525
-64.005
-33.285000000000004
-20.485
-25.605
-20.485
-25.605
-21.765
-24.325
-19.205000000000002
-15.365
-12.805
-14.085
-8.965
-5.125
-0.005
0.0
5.12
14.08
26.88
32.0
42.24
48.64
58.88
66.56
71.68
74.24
72.96000000000001
67.84
55.04
34.56
15.36
3.84
-1.285
-5.125
-10.245000000000001
-14.085
-8.965
-10.245000000000001
-5.125
-2.565
-3.845
-6.405
-6.405
-5.125
-5.125
-8.965
-8.965
-7.6850000000000005
-10.245000000000001
-10.245000000000001
-12.805
-12.805
-12.805
-15.365
-14.085
-12.805
-0.005
8.96
12.8
11.52
32.0
25.6
10.24
0.0
-2.565
-25.605
-29.445
-29.445
-24.325
-23.045
-19.205000000000002
-28.165
-23.045
-24.325
25.6
113.92
-48.645
-103.685
-72.965
-40.965
-25.605
-25.605
-24.325
-28.165
-24.325
-24.325
-16.645
-20.485
-14.085
-14.085
-8.965
-8.965
-0.005
0.0
7.68
14.08
19.2
29.44
40.96
51.2
60.160000000000004
64.0
72.96000000000001
72.96000000000001
75.52
74.24
55.04
33.28
15.36
5.12
-0.005
-6.405
-8.965
-10.245000000000001
-7.6850000000000005
-12.805
-8.965
-5.125
-3.845
-6.405
-5.125
-1.285
-5.125
-8.965
-5.125
-14.085
-7.6850000000000005
-7.6850000000000005
-11.525
-12.805
-11.525
-15.365
-12.805
-5.125
11.52
12.8
15.36
24.32
30.72
20.48
7.68
-1.285
-16.645
-28.165
-25.605
-24.325
-26.885
-32.005
-24.325
-28.165
-19.205000000000002
-2.565
72.96000000000001
81.92
-99.845
-83.205
-58.885
-28.165
-26.885
-29.445
-24.325
-26.885
-24.325
-25.605
-16.645
-21.765
-14.085
-15.365
-6.405
-8.965
0.0
0.0
11.52
16.64
29.44
38.4
47.36
58.88
67.84
70.4
74.24
76.8
72.96000000000001
61.44
46.08
28.16
12.8
0.0
-1.285
-6.405
-6.405
-7.6850000000000005
-3.845
-6.405
-3.845
-2.565
0.0
-2.565
-2.565
-2.565
0.0
-3.845
-6.405
-10.245000000000001
-6.405
-6.405
-7.6850000000000005
-11.525
-10.245000000000001
-14.085
-11.525
-6.405
12.8
8.96
23.04
24.32
35.84
25.6
12.8
3.84
-7.6850000000000005
-21.765
-16.645
-20.485
-16.645
-21.765
-17.925
-24.325
-10.245000000000001
-7.6850000000000005
62.72
131.84
-97.285
-89.605
-44.805
-16.645
-15.365
-20.485
-15.365
-17.925
-12.805
-17.925
-14.085
-19.205000000000002
-10.245000000000001
-11.525
-0.005
-2.565
3.84
5.12
16.64
21.76
29.44
37.12
49.92
58.88
64.0
70.4
72.96000000000001
74.24
74.24
62.72
49.92
26.88
15.36
6.4
-0.005
-3.845
-7.6850000000000005
-7.6850000000000005
-5.125
-7.6850000000000005
-6.405
-3.845
-3.845
-2.565
-3.845
-2.565
-3.845
-6.405
-7.6850000000000005
-7.6850000000000005
-10.245000000000001
-11.525
-11.525
-10.245000000000001
-16.645
-12.805
-14.085
-12.805
-7.6850000000000005
5.12
11.52
17.92
17.92
30.72
24.32
12.8
0.0
0.0
-16.645
-19.205000000000002
-25.605
-23.045
-24.325
-19.205000000000002
-24.325
-23.045
-23.045
33.28
119.04
-69.125
-102.405
-61.445
-33.285000000000004
-20.485
-23.045
-19.205000000000002
-25.605
-16.645
-23.045
-17.925
-20.485
-11.525
-14.085
-7.6850000000000005
-6.405
-0.005
3.84
10.24
14.08
21.76
32.0
44.800000000000004
48.64
62.72
69.12
70.4
74.24
74.24
67.84
51.2
38.4
20.48
3.84
0.0
-7.6850000000000005
-10.245000000000001
-12.805
-7.6850000000000005
-8.965
-6.405
-6.405
-2.565
-7.6850000000000005
-1.285
-0.005
-5.125
-7.6850000000000005
-6.405
-11.525
-7.6850000000000005
-14.085
-10.245000000000001
-8.965
-12.805
-16.645
-12.805
-7.6850000000000005
8.96
8.96
25.6
19.2
29.44
21.76
2.56
-1.285
-8.965
-25.605
-19.205000000000002
-24.325
-23.045
-32.005
-23.045
-24.325
-14.085
-14.085
52.480000000000004
131.84
-90.885
-93.44500000000001
-58.885
-34.565
-24.325
-23.045
-23.045
-25.605
-12.805
-23.045
-16.645
-11.525
-11.525
-14.085
-6.405
-7.6850000000000005
0.0
3.84
12.8
19.2
26.88
28.16
46.08
56.32
67.84
62.72
70.4
78.08
76.8
64.0
52.480000000000004
23.04
10.24
5.12
0.0
-7.6850000000000005
-11.525
-6.405
-11.525
-6.405
-5.125
-6.405
-7.6850000000000005
-1.285
-6.405
-5.125
-8.965
-7.6850000000000005
-11.525
-7.6850000000000005
-8.965
-11.525
-15.365
-12.805
-15.365
-10.245000000000001
-8.965
5.12
5.12
16.64
16.64
32.0
23.04
8.96
-3.845
-1.285
-24.325
-24.325
-32.005
-21.765
-26.885
-21.765
-26.885
-16.645
-12.805
62.72
152.32
-88.325
-93.44500000000001
-53.765
-26.885
-20.485
-30.725
-23.045
-26.885
-20.485
-24.325
-16.645
-17.925
-11.525
-12.805
-3.845
-8.965
0.0
0.0
8.96
14.08
28.16
34.56
46.08
52.480000000000004
58.88
64.0
74.24
75.52
70.4
60.160000000000004
47.36
29.44
14.08
0.0
-6.405
-8.965
-8.965
-8.965
-11.525
-7.6850000000000005
-8.965
-8.965
-7.6850000000000005
-6.405
-8.965
-7.6850000000000005
-11.525
-10.245000000000001
-11.525
-8.965
-15.365
-12.805
-17.925
-19.205000000000002
-19.205000000000002
-14.085
-11.525
0.0
7.68
14.08
12.8
30.72
23.04
8.96
-2.565
-2.565
-26.885
-24.325
-26.885
-24.325
-30.725
-21.765
-28.165
-20.485
-19.205000000000002
47.36
128.0
-102.405
-99.845
-53.765
-24.325
-19.205000000000002
-25.605
-24.325
-26.885
-21.765
-23.045
-19.205000000000002
-20.485
-11.525
-12.805
-5.125
-3.845
1.28
-0.005
10.24
16.64
29.44
30.72
42.24
55.04
62.72
65.28
70.4
67.84
72.96000000000001
64.0
48.64
29.44
14.08
1.28
-5.125
-7.6850000000000005
-6.405
-10.245000000000001
-10.245000000000001
-7.6850000000000005
-5.125
-7.6850000000000005
-7.6850000000000005
-3.845
-5.125
-2.565
-8.965
-6.405
-10.245000000000001
-7.6850000000000005
-12.805
-8.965
-12.805
-10.245000000000001
-12.805
-16.645
-10.245000000000001
10.24
11.52
17.92
16.64
30.72
17.92
5.12
1.28
-7.6850000000000005
-26.885
-25.605
-28.165
-24.325
-28.165
-24.325
-28.165
-16.645
-10.245000000000001
48.64
96.0
-117.765
-97.285
-47.365
-23.045
-23.045
-29.445
-20.485
-25.605
-17.925
-21.765
-17.925
-21.765
-12.805
-11.525
-3.845
-3.845
0.0
3.84
17.92
20.48
26.88
34.56
48.64
55.04
64.0
67.84
75.52
78.08
75.52
61.44
43.52
25.6
10.24
0.0
-5.125
-7.6850000000000005
-8.965
-10.245000000000001
-7.6850000000000005
-8.965
-8.965
-8.965
-5.125
-2.565
0.0
-6.405
-10.245000000000001
-8.965
-8.965
-10.245000000000001
-8.965
-12.805
-12.805
-14.085
-11.525
-8.965
5.12
7.68
16.64
17.92
37.12
17.92
7.68
-0.005
-2.565
-21.765
-23.045
-28.165
-21.765
-25.605
-21.765
-23.045
-16.645
-21.765
39.68
129.28
-85.765
-97.285
-65.285
-38.405
-28.165
-30.725
-25.605
-30.725
-19.205000000000002
-20.485
-21.765
-19.205000000000002
-12.805
-17.925
-6.405
-7.6850000000000005
-0.005
1.28
11.52
10.24
26.88
33.28
43.52
52.480000000000004
58.88
64.0
76.8
75.52
75.52
66.56
44.800000000000004
30.72
17.92
1.28
-6.405
-12.805
-8.965
-5.125
-11.525
-11.525
-8.965
-3.845
-12.805
-3.845
-6.405
-7.6850000000000005
-5.125
-12.805
-10.245000000000001
-7.6850000000000005
-15.365
-16.645
-16.645
-12.805
-10.245000000000001
-3.845
8.96
3.84
16.64
32.0
24.32
21.76
-0.005
-3.845
-19.205000000000002
-21.765
-24.325
-29.445
-32.005
-30.725
-25.605
-28.165
-10.245000000000001
30.72
119.04
17.92
-97.285
-71.685
-40.965
-19.205000000000002
-26.885
-26.885
-28.165
-32.005
-21.765
-20.485
-16.645
-17.925
-12.805
-11.525
-7.6850000000000005
-5.125
1.28
7.68
16.64
17.92
29.44
38.4
49.92
58.88
65.28
66.56
72.96000000000001
74.24
71.68
56.32
33.28
16.64
6.4
-1.285
-6.405
-7.6850000000000005
-10.245000000000001
-8.965
-8.965
-5.125
-8.965
-8.965
-7.6850000000000005
-7.6850000000000005
-5.125
-5.125
-7.6850000000000005
-6.405
-12.805
-7.6850000000000005
-11.525
-10.245000000000001
-16.645
-15.365
-11.525
6.4
11.52
19.2
16.64
28.16
19.2
6.4
-3.845
-7.6850000000000005
-24.325
-26.885
-28.165
-25.605
-32.005
-20.485
-32.005
-25.605
-11.525
69.12
119.04
-110.08500000000001
-94.72500000000001
-46.085
-17.925
-19.205000000000002
-26.885
-24.325
-29.445
-25.605
-23.045
-20.485
-19.205000000000002
-15.365
-15.365
-10.245000000000001
-8.965
-0.005
1.28
10.24
15.36
26.88
29.44
46.08
51.2
61.44
62.72
72.96000000000001
70.4
70.4
57.6
42.24
24.32
10.24
0.0
-10.245000000000001
-8.965
-10.245000000000001
-8.965
-10.245000000000001
-11.525
-6.405
-3.845
-6.405
-6.405
-3.845
-5.125
-8.965
-7.6850000000000005
-11.525
-10.245000000000001
-12.805
-10.245000000000001
-14.085
-12.805
-10.245000000000001
0.0
11.52
16.64
15.36
30.72
20.48
14.08
-0.005
0.0
-21.765
-29.445
-29.445
-25.605
-30.725
-21.765
-29.445
-25.605
-21.765
38.4
108.8
-92.165
-108.805
-62.725
-26.885
-21.765
-29.445
-25.605
-28.165
-19.205000000000002
-24.325
-19.205000000000002
-19.205000000000002
-16.645
-17.925
-6.405
-6.405
-1.285
0.0
8.96
14.08
20.48
30.72
44.800000000000004
51.2
60.160000000000004
66.56
72.96000000000001
75.52
74.24
65.28
53.76
32.0
12.8
2.56
-0.005
-10.245000000000001
-10.245000000000001
-12.805
-12.805
-7.6850000000000005
-6.405
-7.6850000000000005
-7.6850000000000005
-6.405
-6.405
-8.965
-5.125
-7.6850000000000005
-11.525
-11.525
-10.245000000000001
-14.085
-17.925
-15.365
-14.085
-8.965
6.4
8.96
19.2
21.76
23.04
19.2
2.56
0.0
-15.365
-28.165
-24.325
-30.725
-26.885
-26.885
-21.765
-30.725
-15.365
8.96
70.4
60.160000000000004
-111.36500000000001
-84.485
-55.045
-28.165
-24.325
-25.605
-20.485
-25.605
-23.045
-25.605
-16.645
-15.365
-16.645
-17.925
-5.125
-5.125
0.0
1.28
10.24
16.64
28.16
35.84
46.08
55.04
61.44
65.28
75.52
75.52
67.84
55.04
39.68
24.32
6.4
-0.005
-2.565
-7.6850000000000005
-10.245000000000001
-8.965
-7.6850000000000005
-8.965
-5.125
-5.125
-7.6850000000000005
-10.245000000000001
-6.405
-7.6850000000000005
-10.245000000000001
-8.965
-11.525
-12.805
-14.085
-10.245000000000001
-20.485
-11.525
-10.245000000000001
7.68
6.4
19.2
28.16
21.76
17.92
-1.285
0.0
-12.805
-24.325
-28.165
-33.285000000000004
-24.325
-29.445
-24.325
-29.445
-14.085
12.8
90.88
56.32
-111.36500000000001
-85.765
-52.485
-25.605
-25.605
-24.325
-28.165
-28.165
-21.765
-26.885
-17.925
-19.205000000000002
-15.365
-17.925
-7.6850000000000005
-8.965
-2.565
6.4
10.24
16.64
25.6
37.12
49.92
51.2
60.160000000000004
69.12
67.84
76.8
72.96000000000001
56.32
40.96
28.16
10.24
2.56
-5.125
-8.965
-7.6850000000000005
-6.405
-7.6850000000000005
-3.845
-6.405
-5.125
-1.285
-2.565
-8.965
-5.125
-7.6850000000000005
-8.965
-10.245000000000001
-8.965
-17.925
-12.805
-15.365
-10.245000000000001
-10.245000000000001
2.56
8.96
16.64
15.36
30.72
21.76
7.68
-5.125
-2.565
-24.325
-28.165
-32.005
-23.045
-32.005
-24.325
-28.165
-25.605
-16.645
61.44
142.08
-93.44500000000001
-98.565
-52.485
-23.045
-21.765
-29.445
-26.885
-28.165
-23.045
-24.325
-20.485
-20.485
-12.805
-16.645
-7.6850000000000005
-8.965
-2.565
0.0
5.12
12.8
25.6
30.72
44.800000000000004
49.92
57.6
60.160000000000004
69.12
69.12
72.96000000000001
62.72
49.92
30.72
15.36
1.28
-1.285
-6.405
-8.965
-8.965
-8.965
-5.125
-5.125
-5.125
-5.125
-5.125
-6.405
-7.6850000000000005
-3.845
-10.245000000000001
-8.965
-10.245000000000001
-7.6850000000000005
-8.965
-14.085
-16.645
-14.085
-14.085
0.0
10.24
15.36
15.36
30.72
20.48
12.8
-1.285
-2.565
-24.325
-26.885
-25.605
-26.885
-26.885
-21.765
-28.165
-25.605
-21.765
34.56
107.52
-78.08500000000001
-108.805
-65.285
-30.725
-17.925
-24.325
-20.485
-21.765
-20.485
-24.325
-16.645
-17.925
-15.365
-14.085
-8.965
-5.125
-0.005
2.56
8.96
14.08
24.32
34.56
46.08
51.2
60.160000000000004
69.12
72.96000000000001
72.96000000000001
78.08
67.84
53.76
35.84
16.64
3.84
-2.565
-3.845
-10.245000000000001
-12.805
-11.525
-8.965
-6.405
-3.845
-3.845
-7.6850000000000005
-8.965
-6.405
-6.405
-5.125
-11.525
-5.125
-14.085
-16.645
-12.805
-10.245000000000001
-16.645
-14.085
-5.125
10.24
7.68
20.48
23.04
29.44
17.92
2.56
-2.565
-11.525
-25.605
-19.205000000000002
-30.725
-28.165
-30.725
-21.765
-25.605
-15.365
-3.845
60.160000000000004
101.12
-104.965
-90.885
-53.765
-25.605
-25.605
-28.165
-19.205000000000002
-28.165
-20.485
-20.485
-12.805
-21.765
-8.965
-8.965
-7.6850000000000005
-5.125
0.0
1.28
12.8
15.36
28.16
37.12
46.08
51.2
62.72
72.96000000000001
79.36
74.24
71.68
57.6
46.08
29.44
8.96
0.0
-2.565
-10.245000000000001
-6.405
-8.965
-6.405
-7.6850000000000005
-11.525
-5.125
-3.845
-6.405
-5.125
-5.125
-5.125
-8.965
-12.805
-10.245000000000001
-15.365
-15.365
-14.085
-16.645
-15.365
-3.845
11.52
7.68
11.52
23.04
25.6
14.08
0.0
-5.125
-17.925
-33.285000000000004
-29.445
-25.605
-26.885
-30.725
-26.885
-32.005
-14.085
15.36
94.72
47.36
-103.685
-79.365
-47.365
-28.165
-25.605
-26.885
-24.325
-25.605
-20.485
-21.765
-21.765
-17.925
-14.085
-14.085
-7.6850000000000005
-5.125
-2.565
3.84
10.24
14.08
19.2
38.4
47.36
57.6
65.28
66.56
71.68
76.8
70.4
53.76
39.68
21.76
8.96
2.56
-3.845
-8.965
-11.525
-10.245000000000001
-11.525
-8.965
-12.805
-5.125
-5.125
-8.965
-10.245000000000001
-8.965
-7.6850000000000005
-6.405
-14.085
-15.365
-14.085
-12.805
-15.365
-16.645
-16.645
-2.565
10.24
12.8
14.08
30.72
21.76
17.92
0.0
-3.845
-23.045
-28.165
-32.005
-28.165
-30.725
-25.605
-33.285000000000004
-32.005
-20.485
40.96
128.0
-38.405
-106.245
-65.285
-30.725
-17.925
-26.885
-28.165
-29.445
-25.605
-26.885
-20.485
-20.485
-17.925
-17.925
-14.085
-10.245000000000001
-1.285
-1.285
3.84
10.24
16.64
26.88
34.56
44.800000000000004
55.04
62.72
64.0
66.56
69.12
61.44
49.92
29.44
14.08
1.28
-2.565
-7.6850000000000005
-12.805
-11.525
-12.805
-15.365
-8.965
-10.245000000000001
-11.525
-7.6850000000000005
-8.965
-8.965
-8.965
-11.525
-12.805
-12.805
-16.645
-12.805
-16.645
-15.365
-17.925
-16.645
-8.965
8.96
7.68
14.08
20.48
23.04
20.48
2.56
-1.285
-14.085
-28.165
-21.765
-26.885
-25.605
-29.445
-24.325
-28.165
-15.365
3.84
70.4
51.2
-117.765
-87.045
-43.525
-11.525
-16.645
-20.485
-17.925
-17.925
-14.085
-14.085
-10.245000000000001
-12.805
-5.125
-2.565
-0.005
0.0
8.96
15.36
20.48
25.6
37.12
46.08
56.32
64.0
72.96000000000001
76.8
83.2
80.64
76.8
65.28
49.92
28.16
16.64
3.84
0.0
-3.845
-3.845
-2.565
-2.565
-6.405
-2.565
-2.565
-1.285
-1.285
-0.005
-3.845
-3.845
-6.405
-10.245000000000001
-8.965
-3.845
-10.245000000000001
-12.805
-12.805
-8.965
-0.005
15.36
16.64
17.92
29.44
28.16
15.36
2.56
-0.005
-12.805
-19.205000000000002
-23.045
-26.885
-25.605
-20.485
-19.205000000000002
-19.205000000000002
-15.365
20.48
92.16
14.08
-103.685
-74.245
-43.525
-21.765
-21.765
-21.765
-21.765
-19.205000000000002
-15.365
-15.365
-19.205000000000002
-12.805
-6.405
-3.845
0.0
-2.565
3.84
15.36
16.64
20.48
37.12
40.96
56.32
64.0
67.84
75.52
84.48
80.64
70.4
60.160000000000004
38.4
25.6
14.08
2.56
-7.6850000000000005
-10.245000000000001
-6.405
-8.965
-3.845
-2.565
-7.6850000000000005
-5.125
-7.6850000000000005
-1.285
0.0
-3.845
-11.525
-12.805
-3.845
-7.6850000000000005
-14.085
-10.245000000000001
-12.805
-8.965
-6.405
7.68
11.52
24.32
23.04
32.0
23.04
8.96
0.0
-8.965
-23.045
-17.925
-19.205000000000002
-17.925
-30.725
-16.645
-24.325
-10.245000000000001
-0.005
76.8
125.44
-104.965
-83.205
-49.925000000000004
-21.765
-20.485
-26.885
-19.205000000000002
-21.765
-15.365
-17.925
-14.085
-15.365
-10.245000000000001
-8.965
-3.845
-5.125
0.0
2.56
19.2
20.48
29.44
32.0
48.64
60.160000000000004
74.24
67.84
76.8
78.08
78.08
62.72
48.64
28.16
21.76
6.4
5.12
-3.845
-7.6850000000000005
-7.6850000000000005
-1.285
-0.005
-3.845
-7.6850000000000005
-2.565
-3.845
0.0
-2.565
-3.845
-3.845
-6.405
-10.245000000000001
-7.6850000000000005
-12.805
-12.805
-8.965
-14.085
-2.565
11.52
12.8
20.48
29.44
24.32
19.2
2.56
0.0
-15.365
-24.325
-23.045
-20.485
-23.045
-25.605
-23.045
-25.605
-11.525
24.32
110.08
26.88
-99.845
-67.845
-33.285000000000004
-14.085
-19.205000000000002
-20.485
-19.205000000000002
-20.485
-17.925
-15.365
-15.365
-14.085
-12.805
-8.965
-1.285
-1.285
3.84
5.12
16.64
24.32
28.16
38.4
52.480000000000004
58.88
66.56
75.52
76.8
75.52
72.96000000000001
58.88
38.4
21.76
7.68
1.28
-1.285
-5.125
-7.6850000000000005
-6.405
-5.125
-5.125
-7.6850000000000005
-1.285
-2.565
-0.005
-2.565
-1.285
-5.125
-5.125
-6.405
-2.565
-10.245000000000001
-8.965
-10.245000000000001
-8.965
-0.005
12.8
11.52
20.48
25.6
28.16
23.04
5.12
0.0
-8.965
-25.605
-24.325
-26.885
-21.765
-26.885
-23.045
-25.605
-16.645
1.28
66.56
55.04
-121.605
-94.72500000000001
-43.525
-16.645
-23.045
-24.325
-20.485
-23.045
-19.205000000000002
-21.765
-14.085
-16.645
-11.525
-8.965
-6.405
-6.405
2.56
3.84
15.36
21.76
28.16
38.4
49.92
58.88
66.56
70.4
76.8
79.36
72.96000000000001
56.32
48.64
26.88
6.4
-3.845
-3.845
-10.245000000000001
-10.245000000000001
-8.965
-6.405
-7.6850000000000005
-6.405
-3.845
-10.245000000000001
-8.965
-11.525
-7.6850000000000005
-8.965
-12.805
-10.245000000000001
-14.085
-10.245000000000001
-11.525
-10.245000000000001
-14.085
-0.005
8.96
12.8
16.64
34.56
19.2
14.08
2.56
-5.125
-20.485
-28.165
-29.445
-25.605
-28.165
-26.885
-26.885
-23.045
-17.925
28.16
110.08
-33.285000000000004
-103.685
-74.245
-43.525
-25.605
-25.605
-26.885
-24.325
-20.485
-23.045
-20.485
-19.205000000000002
-17.925
-10.245000000000001
-7.6850000000000005
-8.965
-0.005
0.0
10.24
10.24
21.76
30.72
43.52
51.2
57.6
65.28
70.4
79.36
84.48
66.56
51.2
35.84
17.92
6.4
0.0
-10.245000000000001
-10.245000000000001
-11.525
-10.245000000000001
-7.6850000000000005
-7.6850000000000005
-10.245000000000001
-8.965
-5.125
-8.965
-5.125
-8.965
-7.6850000000000005
-12.805
-10.245000000000001
-10.245000000000001
-10.245000000000001
-15.365
-8.965
-10.245000000000001
3.84
10.24
17.92
14.08
37.12
21.76
7.68
1.28
0.0
-19.205000000000002
-23.045
-29.445
-23.045
-28.165
-23.045
-26.885
-10.245000000000001
-5.125
65.28
149.76
-80.645
-93.44500000000001
-53.765
-32.005
-16.645
-25.605
-23.045
-26.885
-16.645
-23.045
-15.365
-16.645
-8.965
-12.805
-7.6850000000000005
-5.125
1.28
3.84
11.52
16.64
24.32
29.44
40.96
52.480000000000004
60.160000000000004
66.56
76.8
78.08
76.8
64.0
49.92
26.88
12.8
1.28
-2.565
-6.405
-5.125
-5.125
-8.965
-7.6850000000000005
-6.405
-7.6850000000000005
-5.125
-2.565
-3.845
-1.285
-1.285
-6.405
-11.525
-7.6850000000000005
-10.245000000000001
-12.805
-15.365
-12.805
-14.085
-0.005
12.8
15.36
14.08
30.72
20.48
12.8
-2.565
0.0
-20.485
-24.325
-26.885
-24.325
-25.605
-26.885
-29.445
-24.325
-23.045
37.12
113.92
-55.045
-106.245
-66.565
-29.445
-19.205000000000002
-21.765
-23.045
-26.885
-21.765
-23.045
-19.205000000000002
-17.925
-15.365
-15.365
-8.965
-10.245000000000001
-1.285
2.56
5.12
8.96
21.76
26.88
37.12
47.36
53.76
60.160000000000004
65.28
70.4
69.12
64.0
49.92
30.72
17.92
2.56
-5.125
-7.6850000000000005
-12.805
-10.245000000000001
-7.6850000000000005
-7.6850000000000005
-8.965
-6.405
-7.6850000000000005
-7.6850000000000005
-5.125
-5.125
-2.565
-5.125
-7.6850000000000005
-8.965
-10.245000000000001
-11.525
-11.525
-14.085
-14.085
-11.525
0.0
14.08
15.36
15.36
33.28
24.32
16.64
0.0
0.0
-17.925
-26.885
-24.325
-25.605
-29.445
-25.605
-29.445
-24.325
-16.645
26.88
97.28
-24.325
-116.485
-76.805
-42.245
-23.045
-24.325
-26.885
-25.605
-24.325
-23.045
-20.485
-19.205000000000002
-17.925
-16.645
-10.245000000000001
-6.405
0.0
0.0
5.12
8.96
19.2
29.44
44.800000000000004
48.64
51.2
62.72
72.96000000000001
74.24
70.4
67.84
51.2
38.4
16.64
0.0
-8.965
-8.965
-8.965
-11.525
-15.365
-11.525
-6.405
-6.405
-12.805
-5.125
-6.405
-11.525
-8.965
-6.405
-7.6850000000000005
-14.085
-16.645
-8.965
-16.645
-19.205000000000002
-11.525
-2.565
12.8
12.8
10.24
28.16
25.6
14.08
-1.285
-3.845
-25.605
-26.885
-24.325
-21.765
-28.165
-33.285000000000004
-28.165
-23.045
-15.365
37.12
133.12
-26.885
-102.405
-72.965
-38.405
-23.045
-26.885
-26.885
-26.885
-19.205000000000002
-23.045
-21.765
-20.485
-12.805
-10.245000000000001
-10.245000000000001
-11.525
1.28
0.0
8.96
7.68
21.76
30.72
43.52
49.92
56.32
67.84
70.4
71.68
78.08
65.28
49.92
32.0
15.36
3.84
-6.405
-7.6850000000000005
-10.245000000000001
-17.925
-12.805
-10.245000000000001
-12.805
-14.085
-11.525
-6.405
-6.405
-11.525
-10.245000000000001
-10.245000000000001
-8.965
-15.365
-10.245000000000001
-16.645
-12.805
-20.485
-15.365
-12.805
10.24
8.96
14.08
19.2
30.72
19.2
2.56
-5.125
-12.805
-29.445
-24.325
-30.725
-23.045
-32.005
-24.325
-29.445
-15.365
2.56
87.04
120.32000000000001
-101.125
-88.325
-44.805
-19.205000000000002
-20.485
-23.045
-21.765
-23.045
-17.925
-17.925
-15.365
-16.645
-11.525
-12.805
-0.005
-5.125
1.28
2.56
12.8
19.2
26.88
32.0
48.64
56.32
60.160000000000004
65.28
72.96000000000001
72.96000000000001
71.68
60.160000000000004
40.96
24.32
10.24
1.28
-1.285
-14.085
-11.525
-10.245000000000001
-10.245000000000001
-10.245000000000001
-8.965
-6.405
-6.405
-5.125
-6.405
-12.805
-7.6850000000000005
-14.085
-8.965
-14.085
-12.805
-10.245000000000001
-11.525
-14.085
-12.805
-7.6850000000000005
3.84
7.68
16.64
17.92
30.72
21.76
3.84
-0.005
-6.405
-26.885
-24.325
-29.445
-25.605
-29.445
-24.325
-30.725
-17.925
-6.405
61.44
104.96000000000001
-113.925
-96.005
-46.085
-15.365
-19.205000000000002
-25.605
-19.205000000000002
-26.885
-17.925
-21.765
-15.365
-19.205000000000002
-11.525
-10.245000000000001
-2.565
-3.845
0.0
1.28
10.24
17.92
25.6
33.28
44.800000000000004
51.2
62.72
65.28
69.12
72.96000000000001
71.68
58.88
43.52
24.32
10.24
-0.005
-1.285
-12.805
-12.805
-7.6850000000000005
-12.805
-10.245000000000001
-2.565
-8.965
-10.245000000000001
-8.965
-11.525
-7.6850000000000005
-6.405
-5.125
-10.245000000000001
-11.525
-10.245000000000001
-19.205000000000002
-11.525
-15.365
-15.365
-7.6850000000000005
10.24
6.4
16.64
19.2
28.16
21.76
5.12
-3.845
-14.085
-32.005
-25.605
-30.725
-24.325
-26.885
-26.885
-30.725
-16.645
-1.285
62.72
93.44
-115.205
-93.44500000000001
-57.605000000000004
-26.885
-23.045
-26.885
-23.045
-23.045
-21.765
-26.885
-15.365
-15.365
-12.805
-15.365
-10.245000000000001
-6.405
0.0
2.56
16.64
16.64
29.44
33.28
43.52
53.76
66.56
65.28
71.68
74.24
71.68
58.88
46.08
28.16
2.56
-2.565
-7.6850000000000005
-10.245000000000001
-10.245000000000001
-11.525
-12.805
-14.085
-7.6850000000000005
-10.245000000000001
-3.845
-7.6850000000000005
-10.245000000000001
-10.245000000000001
-14.085
-11.525
-5.125
-8.965
-15.365
-16.645
-17.925
-14.085
-0.005
16.64
6.4
15.36
26.88
28.16
17.92
-1.285
-1.285
-17.925
-24.325
-21.765
-29.445
-30.725
-23.045
-29.445
-16.645
-12.805
43.52
135.68
-19.205000000000002
-101.125
-62.725
-35.845
-23.045
-29.445
-15.365
-24.325
-21.765
-23.045
-14.085
-14.085
-16.645
-14.085
-7.6850000000000005
-5.125
-1.285
2.56
7.68
16.64
25.6
30.72
42.24
52.480000000000004
62.72
69.12
75.52
75.52
78.08
67.84
57.6
35.84
23.04
6.4
1.28
-2.565
-6.405
-5.125
-0.005
-3.845
-3.845
-1.285
-2.565
-3.845
-2.565
-2.565
-6.405
-5.125
-6.405
-7.6850000000000005
-11.525
-7.6850000000000005
-10.245000000000001
-11.525
-10.245000000000001
0.0
12.8
12.8
17.92
33.28
26.88
17.92
0.0
6.4
-15.365
-21.765
-29.445
-25.605
-29.445
-26.885
-24.325
-20.485
-14.085
47.36
133.12
-35.845
-99.845
-60.165
-29.445
-16.645
-21.765
-19.205000000000002
-24.325
-21.765
-23.045
-15.365
-15.365
-12.805
-15.365
-11.525
-2.565
0.0
1.28
11.52
15.36
19.2
26.88
35.84
46.08
56.32
62.72
67.84
72.96000000000001
70.4
64.0
51.2
29.44
17.92
0.0
-2.565
-3.845
-7.6850000000000005
-7.6850000000000005
-7.6850000000000005
-5.125
-7.6850000000000005
-6.405
-6.405
-3.845
-3.845
-5.125
-5.125
-6.405
-5.125
-3.845
-8.965
-11.525
-14.085
-12.805
-5.125
8.96
12.8
20.48
21.76
28.16
23.04
10.24
0.0
-6.405
-24.325
-23.045
-29.445
-24.325
-25.605
-20.485
-30.725
-12.805
-3.845
57.6
80.64
-115.205
-96.005
-46.085
-15.365
-24.325
-25.605
-21.765
-24.325
-17.925
-23.045
-16.645
-19.205000000000002
-8.965
-11.525
-3.845
-2.565
0.0
3.84
11.52
19.2
29.44
34.56
44.800000000000004
49.92
64.0
67.84
71.68
71.68
69.12
62.72
44.800000000000004
25.6
11.52
0.0
-3.845
-7.6850000000000005
-8.965
-11.525
-10.245000000000001
-11.525
-7.6850000000000005
-7.6850000000000005
-1.285
-3.845
-7.6850000000000005
-10.245000000000001
-6.405
-10.245000000000001
-8.965
-14.085
-8.965
-15.365
-15.365
-11.525
2.56
11.52
16.64
12.8
32.0
28.16
7.68
3.84
-2.565
-24.325
-24.325
-29.445
-24.325
-26.885
-19.205000000000002
-25.605
-16.645
-12.805
48.64
130.56
-87.045
-101.125
-58.885
-32.005
-24.325
-24.325
-20.485
-26.885
-17.925
-21.765
-12.805
-20.485
-12.805
-15.365
-2.565
-2.565
0.0
0.0
10.24
14.08
29.44
34.56
40.96
51.2
55.04
69.12
75.52
72.96000000000001
74.24
61.44
46.08
33.28
11.52
-0.005
-2.565
-7.6850000000000005
-12.805
-8.965
-10.245000000000001
-11.525
-7.6850000000000005
-8.965
-2.565
-8.965
-10.245000000000001
-8.965
-3.845
-10.245000000000001
-10.245000000000001
-15.365
-11.525
-15.365
-11.525
-7.6850000000000005
6.4
8.96
19.2
23.04
28.16
21.76
3.84
0.0
-6.405
-25.605
-24.325
-32.005
-24.325
-25.605
-19.205000000000002
-33.285000000000004
-11.525
3.84
85.76
125.44
-96.005
-83.205
-48.645
-19.205000000000002
-19.205000000000002
-32.005
-23.045
-26.885
-19.205000000000002
-24.325
-16.645
-17.925
-10.245000000000001
-14.085
-1.285
-5.125
1.28
3.84
14.08
12.8
28.16
34.56
44.800000000000004
51.2
61.44
70.4
75.52
70.4
70.4
57.6
40.96
24.32
12.8
2.56
-0.005
-7.6850000000000005
-10.245000000000001
-8.965
-8.965
-5.125
-3.845
-6.405
-5.125
-5.125
-3.845
-6.405
-1.285
-11.525
-10.245000000000001
-8.965
-10.245000000000001
-12.805
-10.245000000000001
-3.845
8.96
12.8
16.64
21.76
26.88
20.48
1.28
-2.565
-11.525
-25.605
-25.605
-29.445
-28.165
-26.885
-23.045
-30.725
-11.525
12.8
85.76
64.0
-103.685
-81.925
-34.565
-12.805
-24.325
-25.605
-24.325
-24.325
-23.045
-21.765
-17.925
-17.925
-15.365
-12.805
-6.405
-5.125
0.0
2.56
11.52
17.92
29.44
35.84
46.08
51.2
57.6
62.72
66.56
65.28
61.44
49.92
37.12
19.2
6.4
-0.005
-6.405
-8.965
-11.525
-10.245000000000001
-7.6850000000000005
-10.245000000000001
-5.125
-6.405
-3.845
-2.565
-7.6850000000000005
-6.405
-7.6850000000000005
-8.965
-11.525
-10.245000000000001
-10.245000000000001
-11.525
-11.525
0.0
14.08
8.96
17.92
30.72
23.04
17.92
0.0
0.0
-15.365
-28.165
-26.885
-26.885
-26.885
-26.885
-24.325
-25.605
-14.085
23.04
81.92
-11.525
-113.925
-78.08500000000001
-37.125
-14.085
-23.045
-25.605
-21.765
-20.485
-20.485
-19.205000000000002
-17.925
-14.085
-12.805
-10.245000000000001
-3.845
-0.005
5.12
5.12
15.36
19.2
29.44
38.4
49.92
56.32
62.72
67.84
72.96000000000001
74.24
64.0
52.480000000000004
32.0
15.36
2.56
-2.565
-5.125
-16.645
-14.085
-14.085
-12.805
-8.965
-10.245000000000001
-8.965
-10.245000000000001
-12.805
-6.405
-7.6850000000000005
-15.365
-15.365
-10.245000000000001
-12.805
-16.645
-8.965
2.56
5.12
19.2
17.92
29.44
23.04
6.4
-1.285
-0.005
-24.325
-29.445
-33.285000000000004
-24.325
-30.725
-21.765
-30.725
-24.325
-21.765
51.2
130.56
-80.645
-103.685
-67.845
-38.405
-26.885
-23.045
-24.325
-34.565
-24.325
-23.045
-21.765
-16.645
-17.925
-17.925
-7.6850000000000005
-5.125
0.0
-1.285
2.56
14.08
24.32
32.0
35.84
47.36
55.04
64.0
75.52
67.84
69.12
58.88
47.36
32.0
15.36
-0.005
-2.565
-7.6850000000000005
-7.6850000000000005
-8.965
-8.965
-8.965
-5.125
-2.565
-8.965
-6.405
-7.6850000000000005
-5.125
-5.125
-11.525
-12.805
-8.965
-11.525
-10.245000000000001
-2.565
12.8
6.4
14.08
26.88
28.16
23.04
0.0
-5.125
-12.805
-23.045
-26.885
-28.165
-26.885
-29.445
-24.325
-32.005
-14.085
28.16
107.52
66.56
-98.565
-74.245
-37.125
-20.485
-24.325
-23.045
-24.325
-20.485
-19.205000000000002
-21.765
-16.645
-15.365
-12.805
-14.085
-6.405
0.0
0.0
3.84
8.96
17.92
28.16
35.84
44.800000000000004
51.2
60.160000000000004
66.56
71.68
67.84
66.56
52.480000000000004
34.56
19.2
8.96
-1.285
-3.845
-5.125
-7.6850000000000005
-5.125
-7.6850000000000005
-6.405
-3.845
-6.405
-2.565
-10.245000000000001
-6.405
-8.965
-5.125
-11.525
-10.245000000000001
-14.085
-10.245000000000001
-6.405
7.68
8.96
16.64
17.92
30.72
19.2
5.12
-2.565
-0.005
-21.765
-26.885
-33.285000000000004
-26.885
-33.285000000000004
-25.605
-34.565
-17.925
-6.405
71.68
126.72
-115.205
-97.285
-48.645
-19.205000000000002
-25.605
-29.445
-24.325
-28.165
-23.045
-26.885
-17.925
-20.485
-12.805
-17.925
-10.245000000000001
-6.405
0.0
1.28
10.24
12.8
24.32
29.44
39.68
48.64
57.6
58.88
66.56
67.84
61.44
51.2
34.56
19.2
6.4
-6.405
-6.405
-10.245000000000001
-12.805
-12.805
-10.245000000000001
-11.525
-11.525
-10.245000000000001
-8.965
-8.965
-11.525
-11.525
-7.6850000000000005
-14.085
-14.085
-14.085
-15.365
-12.805
0.0
11.52
14.08
14.08
26.88
25.6
17.92
0.0
0.0
-16.645
-25.605
-25.605
-26.885
-28.165
-25.605
-30.725
-26.885
-15.365
30.72
88.32000000000001
-42.245
-111.36500000000001
-70.405
-33.285000000000004
-19.205000000000002
-25.605
-23.045
-24.325
-24.325
-21.765
-20.485
-16.645
-11.525
-12.805
-7.6850000000000005
-6.405
-1.285
3.84
3.84
10.24
25.6
29.44
40.96
43.52
55.04
62.72
70.4
76.8
72.96000000000001
62.72
44.800000000000004
29.44
12.8
0.0
-0.005
-8.965
-6.405
-10.245000000000001
-10.245000000000001
-8.965
-8.965
-5.125
-8.965
-10.245000000000001
-5.125
-8.965
-5.125
-12.805
-10.245000000000001
-10.245000000000001
-8.965
-6.405
2.56
7.68
12.8
15.36
26.88
21.76
14.08
-1.285
-2.565
-23.045
-26.885
-35.845
-25.605
-30.725
-20.485
-25.605
-16.645
-10.245000000000001
38.4
125.44
-69.125
-96.005
-65.285
-34.565
-21.765
-25.605
-21.765
-28.165
-20.485
-20.485
-14.085
-17.925
-14.085
-16.645
-2.565
-2.565
-0.005
2.56
12.8
12.8
26.88
34.56
43.52
51.2
60.160000000000004
65.28
74.24
71.68
71.68
66.56
46.08
28.16
8.96
6.4
-2.565
-8.965
-8.965
-10.245000000000001
-6.405
-7.6850000000000005
-6.405
-6.405
-1.285
-6.405
-8.965
-10.245000000000001
0.0
-8.965
-14.085
-14.085
-7.6850000000000005
-8.965
5.12
8.96
16.64
15.36
34.56
23.04
14.08
-5.125
5.12
-20.485
-30.725
-30.725
-25.605
-25.605
-24.325
-26.885
-21.765
-8.965
61.44
154.88
-72.965
-93.44500000000001
-53.765
-21.765
-19.205000000000002
-24.325
-21.765
-21.765
-17.925
-23.045
-23.045
-17.925
-12.805
-12.805
-10.245000000000001
-8.965
-0.005
0.0
8.96
12.8
17.92
30.72
44.800000000000004
47.36
56.32
60.160000000000004
69.12
69.12
70.4
58.88
43.52
21.76
11.52
0.0
-3.845
-6.405
-7.6850000000000005
-10.245000000000001
-6.405
-7.6850000000000005
-6.405
-6.405
-6.405
-5.125
-3.845
-6.405
-3.845
-7.6850000000000005
-6.405
-12.805
-8.965
-8.965
2.56
14.08
15.36
16.64
33.28
23.04
19.2
0.0
-0.005
-19.205000000000002
-25.605
-28.165
-24.325
-25.605
-25.605
-26.885
-21.765
-17.925
53.76
131.84
-76.805
-104.965
-58.885
-23.045
-17.925
-25.605
-21.765
-26.885
-20.485
-19.205000000000002
-17.925
-19.205000000000002
-10.245000000000001
-15.365
-7.6850000000000005
-6.405
0.0
0.0
11.52
15.36
21.76
29.44
42.24
46.08
55.04
60.160000000000004
66.56
69.12
66.56
60.160000000000004
42.24
24.32
8.96
-1.285
-3.845
-10.245000000000001
-10.245000000000001
-10.245000000000001
-7.6850000000000005
-10.245000000000001
-8.965
-10.245000000000001
-7.6850000000000005
-5.125
-7.6850000000000005
-8.965
-11.525
-11.525
-8.965
-11.525
-16.645
-12.805
-3.845
12.8
11.52
16.64
23.04
23.04
15.36
-0.005
0.0
-14.085
-28.165
-28.165
-33.285000000000004
-29.445
-28.165
-28.165
-29.445
-15.365
17.92
74.24
-2.565
-120.325
-85.765
-38.405
-17.925
-20.485
-23.045
-24.325
-25.605
-20.485
-19.205000000000002
-19.205000000000002
-16.645
-10.245000000000001
-8.965
-6.405
0.0
0.0
5.12
12.8
23.04
33.28
39.68
48.64
56.32
61.44
70.4
70.4
74.24
65.28
51.2
32.0
12.8
0.0
0.0
-7.6850000000000005
-12.805
-8.965
-10.245000000000001
-10.245000000000001
-7.6850000000000005
-5.125
-3.845
-8.965
-11.525
-10.245000000000001
-3.845
-3.845
-10.245000000000001
-12.805
-12.805
-8.965
5.12
11.52
19.2
16.64
32.0
21.76
15.36
1.28
-5.125
-24.325
-24.325
-28.165
-20.485
-29.445
-24.325
-26.885
-15.365
-14.085
44.800000000000004
124.16
-85.765
-97.285
-61.445
-33.285000000000004
-21.765
-24.325
-20.485
-30.725
-24.325
-23.045
-16.645
-16.645
-10.245000000000001
-11.525
-5.125
-6.405
-1.285
2.56
14.08
19.2
23.04
33.28
46.08
48.64
60.160000000000004
64.0
70.4
71.68
76.8
58.88
44.800000000000004
24.32
7.68
-1.285
-3.845
-3.845
-8.965
-12.805
-10.245000000000001
-10.245000000000001
-5.125
-11.525
-6.405
-10.245000000000001
-6.405
-10.245000000000001
-6.405
-11.525
-14.085
-19.205000000000002
-14.085
-2.565
6.4
10.24
16.64
20.48
28.16
20.48
0.0
-1.285
-11.525
-28.165
-32.005
-34.565
-21.765
-25.605
-25.605
-28.165
-11.525
6.4
83.2
97.28
-108.805
-84.485
-46.085
-19.205000000000002
-23.045
-25.605
-25.605
-25.605
-25.605
-29.445
-16.645
-17.925
-10.245000000000001
-8.965
-5.125
-6.405
-0.005
-0.005
7.68
12.8
24.32
35.84
46.08
52.480000000000004
58.88
65.28
67.84
64.0
61.44
51.2
37.12
17.92
7.68
0.0
-5.125
-11.525
-7.6850000000000005
-7.6850000000000005
-7.6850000000000005
-10.245000000000001
-6.405
-5.125
-6.405
-6.405
-6.405
-8.965
-7.6850000000000005
-16.645
-11.525
-14.085
-11.525
-12.805
0.0
8.96
11.52
11.52
28.16
19.2
11.52
-1.285
0.0
-20.485
-26.885
-29.445
-25.605
-30.725
-24.325
-30.725
-23.045
-19.205000000000002
42.24
113.92
-81.925
-106.245
-60.165
-26.885
-23.045
-29.445
-21.765
-24.325
-20.485
-21.765
-19.205000000000002
-19.205000000000002
-14.085
-14.085
-6.405
-7.6850000000000005
0.0
1.28
11.52
14.08
23.04
30.72
39.68
46.08
53.76
58.88
67.84
67.84
66.56
60.160000000000004
43.52
26.88
11.52
1.28
-5.125
-10.245000000000001
-10.245000000000001
-12.805
-8.965
-5.125
-5.125
-7.6850000000000005
-5.125
-7.6850000000000005
-5.125
-7.6850000000000005
-8.965
-6.405
-7.6850000000000005
-12.805
-12.805
-7.6850000000000005
1.28
11.52
16.64
15.36
33.28
24.32
20.48
1.28
1.28
-21.765
-24.325
-26.885
-24.325
-24.325
-21.765
-28.165
-21.765
-19.205000000000002
38.4
107.52
-85.765
-112.645
-64.005
-29.445
-21.765
-26.885
-23.045
-25.605
-21.765
-23.045
-17.925
-19.205000000000002
-14.085
-17.925
-6.405
-6.405
0.0
1.28
7.68
11.52
28.16
34.56
42.24
46.08
56.32
65.28
66.56
71.68
66.56
53.76
42.24
26.88
11.52
-2.565
-7.6850000000000005
-7.6850000000000005
-12.805
-11.525
-14.085
-8.965
-7.6850000000000005
-6.405
-10.245000000000001
-8.965
-8.965
-3.845
-6.405
-8.965
-12.805
-11.525
-10.245000000000001
-8.965
-2.565
12.8
11.52
16.64
28.16
30.72
19.2
-0.005
0.0
-17.925
-28.165
-29.445
-24.325
-26.885
-23.045
-25.605
-25.605
-16.645
15.36
89.60000000000001
19.2
-107.525
-79.365
-49.925000000000004
-26.885
-25.605
-28.165
-26.885
-25.605
-24.325
-21.765
-17.925
-17.925
-11.525
-14.085
-10.245000000000001
-5.125
0.0
6.4
10.24
14.08
25.6
34.56
42.24
55.04
57.6
62.72
66.56
65.28
64.0
46.08
30.72
11.52
5.12
-1.285
-7.6850000000000005
-12.805
-12.805
-11.525
-10.245000000000001
-2.565
-14.085
-8.965
-8.965
-7.6850000000000005
-11.525
-12.805
-10.245000000000001
-11.525
-8.965
-12.805
-17.925
-11.525
-6.405
10.24
10.24
16.64
21.76
29.44
24.32
6.4
1.28
-3.845
-23.045
-23.045
-29.445
-24.325
-28.165
-23.045
-30.725
-14.085
-3.845
69.12
119.04
-101.125
-90.885
-48.645
-17.925
-19.205000000000002
-24.325
-21.765
-23.045
-19.205000000000002
-23.045
-17.925
-23.045
-10.245000000000001
-14.085
-3.845
-5.125
2.56
3.84
12.8
15.36
25.6
30.72
43.52
49.92
55.04
60.160000000000004
66.56
66.56
62.72
52.480000000000004
37.12
19.2
6.4
-1.285
-6.405
-8.965
-8.965
-8.965
-6.405
-5.125
-5.125
-6.405
-2.565
-6.405
-6.405
-8.965
-8.965
-8.965
-7.6850000000000005
-12.805
-10.245000000000001
-15.365
-11.525
-12.805
2.56
8.96
17.92
16.64
29.44
20.48
10.24
0.0
-0.005
-24.325
-24.325
-32.005
-28.165
-29.445
-24.325
-29.445
-21.765
-23.045
39.68
116.48
-97.285
-108.805
-61.445
-26.885
-19.205000000000002
-25.605
-24.325
-28.165
-23.045
-24.325
-16.645
-19.205000000000002
-14.085
-16.645
-6.405
-3.845
-0.005
2.56
8.96
15.36
24.32
28.16
38.4
46.08
55.04
61.44
64.0
65.28
66.56
55.04
40.96
25.6
12.8
0.0
-3.845
-8.965
-10.245000000000001
-11.525
-6.405
-7.6850000000000005
-5.125
-3.845
-8.965
-7.6850000000000005
-6.405
-8.965
-8.965
-6.405
-10.245000000000001
-11.525
-12.805
-14.085
-14.085
-10.245000000000001
-0.005
8.96
10.24
15.36
30.72
26.88
19.2
3.84
-0.005
-21.765
-26.885
-24.325
-26.885
-26.885
-28.165
-26.885
-24.325
-12.805
25.6
94.72
-5.125
-107.525
-71.685
-43.525
-17.925
-24.325
-20.485
-19.205000000000002
-23.045
-17.925
-16.645
-16.645
-11.525
-8.965
-10.245000000000001
0.0
0.0
5.12
8.96
12.8
25.6
33.28
40.96
47.36
56.32
65.28
67.84
69.12
66.56
65.28
55.04
33.28
21.76
7.68
0.0
-3.845
-8.965
-7.6850000000000005
-6.405
-5.125
-1.285
-6.405
-2.565
-0.005
-1.285
-6.405
-5.125
-7.6850000000000005
-5.125
-10.245000000000001
-8.965
-12.805
-8.965
-7.6850000000000005
3.84
8.96
21.76
23.04
37.12
24.32
8.96
-0.005
0.0
-17.925
-21.765
-25.605
-21.765
-25.605
-19.205000000000002
-26.885
-16.645
-10.245000000000001
48.64
138.24
-74.245
-97.285
-61.445
-33.285000000000004
-24.325
-23.045
-19.205000000000002
-25.605
-17.925
-21.765
-11.525
-16.645
-14.085
-12.805
-2.565
-1.285
0.0
5.12
12.8
16.64
29.44
35.84
44.800000000000004
47.36
56.32
62.72
64.0
67.84
67.84
60.160000000000004
44.800000000000004
25.6
14.08
5.12
-1.285
-5.125
-5.125
-6.405
-5.125
-5.125
-1.285
-1.285
-2.565
-0.005
-1.285
-3.845
-5.125
-8.965
-7.6850000000000005
-11.525
-8.965
-12.805
-11.525
-8.965
1.28
10.24
14.08
19.2
29.44
20.48
19.2
0.0
1.28
-16.645
-26.885
-25.605
-25.605
-26.885
-24.325
-25.605
-28.165
-19.205000000000002
33.28
108.8
-30.725
-98.565
-60.165
-28.165
-19.205000000000002
-25.605
-21.765
-24.325
-23.045
-21.765
-20.485
-20.485
-11.525
-12.805
-11.525
-5.125
-0.005
0.0
8.96
14.08
21.76
30.72
34.56
44.800000000000004
51.2
55.04
58.88
61.44
61.44
56.32
43.52
29.44
14.08
1.28
-1.285
-7.6850000000000005
-6.405
-7.6850000000000005
-6.405
-7.6850000000000005
-6.405
-3.845
-7.6850000000000005
-3.845
-3.845
-3.845
-3.845
-7.6850000000000005
-11.525
-11.525
-12.805
-11.525
-14.085
-14.085
-2.565
12.8
12.8
16.64
28.16
23.04
19.2
2.56
-0.005
-17.925
-24.325
-24.325
-28.165
-28.165
-28.165
-25.605
-25.605
-21.765
15.36
81.92
-10.245000000000001
-110.08500000000001
-79.365
-39.685
-20.485
-24.325
-24.325
-23.045
-23.045
-23.045
-20.485
-17.925
-16.645
-10.245000000000001
-10.245000000000001
-5.125
-1.285
0.0
6.4
10.24
20.48
26.88
38.4
44.800000000000004
49.92
58.88
60.160000000000004
64.0
64.0
56.32
47.36
28.16
10.24
-1.285
-2.565
-10.245000000000001
-14.085
-14.085
-12.805
-7.6850000000000005
-8.965
-11.525
-8.965
-12.805
-11.525
-11.525
-8.965
-11.525
-12.805
-17.925
-12.805
-17.925
-14.085
-14.085
8.96
8.96
14.08
21.76
28.16
21.76
5.12
-3.845
-14.085
-25.605
-25.605
-33.285000000000004
-23.045
-28.165
-28.165
-33.285000000000004
-16.645
-7.6850000000000005
55.04
101.12
-102.405
-84.485
-51.205
-25.605
-20.485
-29.445
-20.485
-28.165
-21.765
-21.765
-19.205000000000002
-19.205000000000002
-10.245000000000001
-15.365
-7.6850000000000005
-7.6850000000000005
0.0
2.56
12.8
12.8
21.76
32.0
39.68
46.08
52.480000000000004
61.44
61.44
62.72
61.44
51.2
30.72
14.08
3.84
-5.125
-3.845
-11.525
-15.365
-11.525
-7.6850000000000005
-7.6850000000000005
-11.525
-7.6850000000000005
-11.525
-7.6850000000000005
-6.405
-7.6850000000000005
-6.405
-16.645
-14.085
-11.525
-15.365
-12.805
-3.845
15.36
10.24
15.36
30.72
19.2
25.6
2.56
0.0
-17.925
-23.045
-26.885
-30.725
-24.325
-32.005
-20.485
-24.325
-12.805
14.08
98.56
24.32
-97.285
-71.685
-48.645
-29.445
-25.605
-24.325
-26.885
-25.605
-25.605
-21.765
-19.205000000000002
-15.365
-11.525
-11.525
-7.6850000000000005
-5.125
2.56
5.12
10.24
20.48
28.16
35.84
43.52
51.2
58.88
65.28
70.4
70.4
62.72
46.08
32.0
17.92
3.84
-1.285
-5.125
-6.405
-6.405
-5.125
-2.565
-5.125
-1.285
-0.005
-3.845
-7.6850000000000005
-3.845
-5.125
-6.405
-11.525
-8.965
-12.805
-7.6850000000000005
-8.965
5.12
11.52
16.64
12.8
25.6
24.32
12.8
-2.565
-1.285
-23.045
-26.885
-32.005
-23.045
-30.725
-24.325
-29.445
-21.765
-16.645
49.92
122.88
-96.005
-96.005
-48.645
-20.485
-23.045
-25.605
-21.765
-26.885
-20.485
-23.045
-17.925
-16.645
-10.245000000000001
-11.525
-6.405
-5.125
1.28
2.56
11.52
15.36
26.88
34.56
44.800000000000004
48.64
55.04
58.88
67.84
67.84
66.56
55.04
42.24
23.04
10.24
1.28
-3.845
-8.965
-8.965
-6.405
-3.845
-2.565
-3.845
-2.565
-2.565
-1.285
-6.405
-3.845
-5.125
-5.125
-3.845
-10.245000000000001
-7.6850000000000005
-7.6850000000000005
0.0
15.36
16.64
15.36
29.44
25.6
17.92
1.28
1.28
-16.645
-24.325
-23.045
-23.045
-24.325
-29.445
-28.165
-28.165
-17.925
23.04
83.2
-23.045
-110.08500000000001
-72.965
-34.565
-19.205000000000002
-23.045
-23.045
-21.765
-23.045
-17.925
-15.365
-14.085
-14.085
-11.525
-7.6850000000000005
-3.845
0.0
2.56
6.4
12.8
24.32
33.28
40.96
48.64
52.480000000000004
62.72
69.12
67.84
71.68
61.44
47.36
29.44
14.08
6.4
-5.125
-8.965
-7.6850000000000005
-7.6850000000000005
-11.525
-10.245000000000001
-6.405
-5.125
-6.405
-2.565
-3.845
-8.965
-10.245000000000001
-7.6850000000000005
-10.245000000000001
-8.965
-14.085
-11.525
-1.285
14.08
12.8
16.64
30.72
30.72
24.32
5.12
0.0
-17.925
-24.325
-20.485
-26.885
-24.325
-24.325
-24.325
-23.045
-12.805
15.36
90.88
28.16
-97.285
-78.08500000000001
-51.205
-28.165
-19.205000000000002
-21.765
-20.485
-23.045
-19.205000000000002
-19.205000000000002
-12.805
-15.365
-8.965
-10.245000000000001
-5.125
0.0
0.0
8.96
16.64
20.48
29.44
35.84
48.64
55.04
58.88
65.28
69.12
71.68
66.56
48.64
30.72
17.92
2.56
-1.285
-1.285
-12.805
-8.965
-10.245000000000001
-2.565
-5.125
-7.6850000000000005
-6.405
-8.965
-2.565
0.0
-10.245000000000001
-8.965
-11.525
-12.805
-11.525
-10.245000000000001
-8.965
2.56
7.68
16.64
11.52
29.44
20.48
7.68
0.0
-2.565
-32.005
-33.285000000000004
-24.325
-25.605
-32.005
-25.605
-34.565
-20.485
-3.845
76.8
136.96
-98.565
-85.765
-49.925000000000004
-25.605
-21.765
-26.885
-20.485
-24.325
-17.925
-20.485
-12.805
-19.205000000000002
-12.805
-10.245000000000001
-1.285
-2.565
1.28
0.0
11.52
19.2
24.32
33.28
44.800000000000004
48.64
58.88
65.28
69.12
70.4
64.0
56.32
39.68
19.2
10.24
-0.005
-10.245000000000001
-8.965
-7.6850000000000005
-8.965
-7.6850000000000005
-7.6850000000000005
-7.6850000000000005
-3.845
-2.565
-6.405
-8.965
-7.6850000000000005
-7.6850000000000005
-12.805
-7.6850000000000005
-10.245000000000001
-12.805
-14.085
-2.565
10.24
11.52
16.64
21.76
24.32
20.48
2.56
0.0
-11.525
-24.325
-25.605
-26.885
-25.605
-28.165
-24.325
-29.445
-14.085
21.76
87.04
26.88
-106.245
-75.525
-33.285000000000004
-14.085
-20.485
-23.045
-23.045
-21.765
-19.205000000000002
-20.485
-17.925
-16.645
-11.525
-11.525
-2.565
-2.565
3.84
6.4
12.8
19.2
32.0
37.12
44.800000000000004
51.2
56.32
65.28
65.28
69.12
61.44
46.08
29.44
14.08
0.0
-5.125
-7.6850000000000005
-10.245000000000001
-8.965
-8.965
-7.6850000000000005
-7.6850000000000005
-8.965
-3.845
-10.245000000000001
-2.565
-8.965
-7.6850000000000005
-8.965
-6.405
-10.245000000000001
-8.965
-12.805
-11.525
-6.405
12.8
14.08
16.64
23.04
25.6
21.76
6.4
2.56
-7.6850000000000005
-25.605
-21.765
-26.885
-21.765
-29.445
-24.325
-25.605
-11.525
5.12
60.160000000000004
52.480000000000004
-122.885
-93.44500000000001
-44.805
-17.925
-21.765
-26.885
-24.325
-26.885
-19.205000000000002
-20.485
-16.645
-17.925
-11.525
-12.805
-3.845
-2.565
1.28
1.28
11.52
17.92
26.88
37.12
46.08
55.04
61.44
65.28
70.4
74.24
65.28
53.76
35.84
20.48
3.84
-6.405
-12.805
-15.365
-19.205000000000002
-12.805
-10.245000000000001
-6.405
-10.245000000000001
-6.405
-11.525
-11.525
-6.405
-6.405
-11.525
-11.525
-15.365
-12.805
-15.365
-12.805
-3.845
8.96
11.52
16.64
25.6
26.88
21.76
0.0
-1.285
-7.6850000000000005
-24.325
-23.045
-30.725
-28.165
-28.165
-21.765
-32.005
-17.925
-1.285
61.44
62.72
-112.645
-93.44500000000001
-58.885
-32.005
-25.605
-32.005
-28.165
-28.165
-20.485
-28.165
-19.205000000000002
-17.925
-14.085
-17.925
-12.805
-19.205000000000002
-3.845
32.0
28.16
29.44
32.0
37.12
51.2
56.32
60.160000000000004
64.0
72.96000000000001
71.68
62.72
49.92
34.56
16.64
3.84
-2.565
-8.965
-14.085
-12.805
-11.525
-11.525
-5.125
-6.405
-5.125
-3.845
-8.965
-8.965
-7.6850000000000005
-3.845
-7.6850000000000005
-10.245000000000001
-11.525
-20.485
-12.805
-1.285
15.36
12.8
16.64
28.16
33.28
20.48
1.28
-0.005
-14.085
-26.885
-29.445
-30.725
-25.605
-30.725
-24.325
-24.325
-17.925
5.12
90.88
78.08
-96.005
-80.645
-46.085
-21.765
-20.485
-33.285000000000004
-21.765
-21.765
-23.045
-21.765
-19.205000000000002
-21.765
-16.645
-15.365
-2.565
-0.005
2.56
6.4
14.08
21.76
32.0
40.96
48.64
51.2
62.72
67.84
67.84
74.24
69.12
52.480000000000004
34.56
15.36
7.68
-2.565
-7.6850000000000005
-8.965
-8.965
-6.405
-8.965
-3.845
-3.845
-3.845
-10.245000000000001
-3.845
-7.6850000000000005
-7.6850000000000005
-8.965
-7.6850000000000005
-8.965
-8.965
-11.525
-11.525
-12.805
0.0
11.52
15.36
16.64
33.28
28.16
12.8
-0.005
0.0
-23.045
-21.765
-25.605
-21.765
-29.445
-19.205000000000002
-24.325
-19.205000000000002
-12.805
64.0
142.08
-99.845
-102.405
-53.765
-19.205000000000002
-17.925
-28.165
-20.485
-25.605
-20.485
-26.885
-19.205000000000002
-19.205000000000002
-11.525
-14.085
-5.125
-10.245000000000001
0.0
0.0
11.52
12.8
23.04
28.16
38.4
49.92
55.04
60.160000000000004
66.56
65.28
65.28
53.76
39.68
21.76
7.68
0.0
-6.405
-7.6850000000000005
-8.965
-8.965
-10.245000000000001
-8.965
-6.405
-3.845
-6.405
-3.845
-3.845
-3.845
-1.285
-6.405
-2.565
-5.125
-5.125
-11.525
-6.405
0.0
16.64
10.24
17.92
25.6
20.48
15.36
0.0
-1.285
-14.085
-25.605
-26.885
-25.605
-25.605
-29.445
-26.885
-28.165
-11.525
19.2
88.32000000000001
25.6
-117.765
-87.045
-46.085
-19.205000000000002
-21.765
-26.885
-24.325
-25.605
-25.605
-20.485
-16.645
-15.365
-16.645
-10.245000000000001
0.0
-1.285
1.28
6.4
12.8
20.48
30.72
35.84
46.08
52.480000000000004
66.56
66.56
71.68
72.96000000000001
64.0
48.64
33.28
23.04
3.84
-5.125
-12.805
-14.085
-7.6850000000000005
-8.965
-15.365
-14.085
-11.525
-8.965
-7.6850000000000005
-7.6850000000000005
-14.085
-12.805
-6.405
-12.805
-16.645
-17.925
-15.365
-15.365
-2.565
10.24
14.08
6.4
30.72
23.04
17.92
0.0
-3.845
-16.645
-21.765
-28.165
-25.605
-34.565
-26.885
-21.765
-25.605
-15.365
37.12
134.4
-24.325
-90.885
-66.565
-40.965
-25.605
-24.325
-25.605
-20.485
-21.765
-25.605
-17.925
-21.765
-14.085
-17.925
-6.405
-10.245000000000001
2.56
-1.285
6.4
14.08
19.2
23.04
32.0
46.08
56.32
58.88
60.160000000000004
67.84
67.84
60.160000000000004
52.480000000000004
28.16
12.8
-0.005
-7.6850000000000005
-7.6850000000000005
-10.245000000000001
-8.965
-14.085
-11.525
-12.805
-5.125
-7.6850000000000005
-3.845
-6.405
-6.405
-12.805
-12.805
-10.245000000000001
-7.6850000000000005
-12.805
-14.085
-11.525
-3.845
5.12
11.52
16.64
33.28
23.04
20.48
-3.845
3.84
-16.645
-29.445
-25.605
-29.445
-29.445
-24.325
-25.605
-28.165
-10.245000000000001
53.76
134.4
-24.325
-102.405
-62.725
-30.725
-19.205000000000002
-17.925
-24.325
-25.605
-23.045
-16.645
-20.485
-20.485
-17.925
-21.765
-12.805
-8.965
-2.565
0.0
8.96
12.8
25.6
33.28
39.68
49.92
58.88
62.72
65.28
65.28
71.68
64.0
44.800000000000004
32.0
20.48
6.4
0.0
-2.565
-5.125
-8.965
-8.965
-7.6850000000000005
-6.405
-3.845
-7.6850000000000005
-6.405
-7.6850000000000005
-6.405
-6.405
-6.405
-10.245000000000001
-7.6850000000000005
-11.525
-3.845
-7.6850000000000005
5.12
17.92
21.76
17.92
30.72
25.6
16.64
0.0
3.84
-20.485
-26.885
-29.445
-25.605
-29.445
-23.045
-30.725
-23.045
-20.485
46.08
121.60000000000001
-102.405
-107.525
-56.325
-21.765
-19.205000000000002
-25.605
-19.205000000000002
-24.325
-15.365
-20.485
-12.805
-19.205000000000002
-14.085
-12.805
-6.405
-5.125
0.0
2.56
6.4
11.52
23.04
26.88
34.56
46.08
60.160000000000004
61.44
64.0
64.0
65.28
55.04
42.24
20.48
6.4
-0.005
-6.405
-8.965
-16.645
-14.085
-11.525
-6.405
-12.805
-16.645
-14.085
-11.525
-10.245000000000001
-11.525
-8.965
-12.805
-12.805
-11.525
-20.485
-16.645
0.0
14.08
11.52
14.08
32.0
26.88
24.32
0.0
-2.565
-14.085
-26.885
-28.165
-30.725
-24.325
-29.445
-25.605
-29.445
-16.645
24.32
101.12
0.0
-112.645
-88.325
-56.325
-28.165
-29.445
-29.445
-33.285000000000004
-26.885
-20.485
-20.485
-23.045
-17.925
-14.085
-11.525
-6.405
-6.405
-0.005
0.0
10.24
21.76
25.6
35.84
42.24
48.64
52.480000000000004
62.72
65.28
62.72
56.32
39.68
21.76
12.8
-0.005
-7.6850000000000005
-11.525
-5.125
-12.805
-11.525
-8.965
-10.245000000000001
-10.245000000000001
-11.525
-3.845
-7.6850000000000005
-8.965
-15.365
-11.525
-10.245000000000001
-7.6850000000000005
-12.805
-17.925
-6.405
7.68
19.2
10.24
26.88
21.76
16.64
3.84
-3.845
-14.085
-26.885
-21.765
-29.445
-28.165
-21.765
-24.325
-26.885
-14.085
46.08
134.4
0.0
-103.685
-69.125
-38.405
-15.365
-20.485
-20.485
-24.325
-20.485
-21.765
-14.085
-15.365
-19.205000000000002
-10.245000000000001
-11.525
-6.405
-1.285
0.0
10.24
19.2
16.64
25.6
38.4
40.96
49.92
58.88
56.32
61.44
61.44
49.92
39.68
21.76
8.96
-0.005
-10.245000000000001
-11.525
-12.805
-11.525
-7.6850000000000005
-7.6850000000000005
-7.6850000000000005
-5.125
-8.965
-10.245000000000001
-7.6850000000000005
-8.965
-6.405
-11.525
-10.245000000000001
-12.805
-8.965
-14.085
-0.005
12.8
14.08
10.24
28.16
19.2
12.8
-2.565
1.28
-23.045
-26.885
-32.005
-20.485
-29.445
-23.045
-23.045
-21.765
-11.525
61.44
136.96
-75.525
-106.245
-57.605000000000004
-20.485
-19.205000000000002
-24.325
-23.045
-24.325
-21.765
-20.485
-23.045
-19.205000000000002
-16.645
-15.365
-7.6850000000000005
-3.845
-0.005
-1.285
7.68
11.52
21.76
30.72
43.52
48.64
56.32
60.160000000000004
65.28
66.56
64.0
55.04
40.96
23.04
11.52
-1.285
-5.125
-6.405
-7.6850000000000005
-15.365
-7.6850000000000005
-7.6850000000000005
-7.6850000000000005
-8.965
-3.845
-6.405
-8.965
-8.965
-8.965
-11.525
-11.525
-14.085
-14.085
-8.965
1.28
7.68
14.08
11.52
25.6
20.48
10.24
-5.125
-2.565
-26.885
-29.445
-35.845
-28.165
-30.725
-26.885
-33.285000000000004
-25.605
-21.765
40.96
107.52
-125.44500000000001
-116.485
-62.725
-28.165
-23.045
-30.725
-26.885
-32.005
-23.045
-24.325
-17.925
-21.765
-16.645
-17.925
-7.6850000000000005
-11.525
-1.285
0.0
3.84
8.96
19.2
33.28
40.96
